ts,ecg
1626177386385.16,-3.55927450171405
1626177386388.49,-3.78414974023697
1626177386391.82,-4.21161463399108
1626177386395.14,-4.40244846373182
1626177386398.47,-4.42163281698618
1626177386401.79,-4.3575166890045
1626177386405.12,-4.36263732464758
1626177386408.45,-4.35809366203471
1626177386411.77,-4.35780517551961
1626177386415.1,-4.38535563771196
1626177386418.43,-4.37533073131212
1626177386421.75,-4.395957517142
1626177386425.08,-4.4138436810784
1626177386428.41,-4.41716127600208
1626177386431.73,-4.41427641085105
1626177386435.06,-4.42870073660621
1626177386438.39,-4.44608204914117
1626177386441.71,-4.42776315543212
1626177386445.04,-4.43923049440747
1626177386448.36,-4.45444815807917
1626177386451.69,-4.4209837223272
1626177386455.02,-4.40331392327713
1626177386458.34,-4.40670363982959
1626177386461.67,-4.40944426172307
1626177386465,-4.4099491131245
1626177386468.32,-4.40944426172307
1626177386471.65,-4.40057330138365
1626177386474.98,-4.40151088255774
1626177386478.3,-4.40562181539796
1626177386481.63,-4.41478126225248
1626177386484.95,-4.39754419297507
1626177386488.28,-4.39263992221831
1626177386491.61,-4.38564412422706
1626177386494.93,-4.38723080006013
1626177386498.26,-4.38708655680258
1626177386501.59,-4.38542775934074
1626177386504.91,-4.39588539551322
1626177386508.24,-4.37951378578112
1626177386511.57,-4.39545266574057
1626177386514.89,-4.36847917657842
1626177386518.22,-4.35787729714838
1626177386521.55,-4.34640995817303
1626177386524.87,-4.35405485082327
1626177386528.2,-4.34100083601485
1626177386531.52,-4.33083168635746
1626177386534.85,-4.32217709090437
1626177386538.18,-4.30090121041551
1626177386541.5,-4.31258491427719
1626177386544.83,-4.30320910253633
1626177386548.16,-4.28308716810789
1626177386551.48,-4.28626051977402
1626177386554.81,-4.27587500523031
1626177386558.14,-4.27940896504032
1626177386561.46,-4.24565604277325
1626177386564.79,-4.2318086900483
1626177386568.12,-4.23887660966833
1626177386571.44,-4.17742898195135
1626177386574.77,-4.1612016154768
1626177386578.09,-4.15586461494739
1626177386581.42,-4.15110458744819
1626177386584.75,-4.15146519559207
1626177386588.07,-4.13365115328445
1626177386591.4,-4.11050011044742
1626177386594.73,-4.08395935105793
1626177386598.05,-4.07580960700627
1626177386601.38,-4.08093024264935
1626177386604.71,-4.06455863291724
1626177386608.03,-4.0697513901891
1626177386611.36,-4.05078340182107
1626177386614.69,-4.05965436216049
1626177386618.01,-4.05244219928291
1626177386621.34,-4.04465306337512
1626177386624.66,-4.02957964296098
1626177386627.99,-4.02929115644588
1626177386631.32,-4.04378760382981
1626177386634.64,-4.06470287617479
1626177386637.97,-4.05965436216049
1626177386641.3,-4.10184551499433
1626177386644.62,-4.11021162393232
1626177386647.95,-4.15874948009842
1626177386651.28,-4.21348979633925
1626177386654.6,-4.18190052293545
1626177386657.93,-4.22300985133765
1626177386661.25,-4.27818289735113
1626177386664.58,-4.2797695731842
1626177386667.91,-4.28936174981138
1626177386671.23,-4.31734494177639
1626177386674.56,-4.34669844468814
1626177386677.89,-4.35542516177001
1626177386681.21,-4.33148078101644
1626177386684.54,-4.35535304014123
1626177386687.87,-4.38268713744725
1626177386691.19,-4.38218228604582
1626177386694.52,-4.39559690899812
1626177386697.85,-4.39840965252038
1626177386701.17,-4.4096606266094
1626177386704.5,-4.42855649334866
1626177386707.82,-4.42220979001639
1626177386711.15,-4.43122499361336
1626177386714.48,-4.42300312793292
1626177386717.8,-4.4188921950927
1626177386721.13,-4.45214026595834
1626177386724.46,-4.45459240133672
1626177386727.78,-4.44204323792973
1626177386731.11,-4.45747726648775
1626177386734.44,-4.45293360387488
1626177386737.76,-4.44024019721034
1626177386741.09,-4.42920558800764
1626177386744.42,-4.44882267103466
1626177386747.74,-4.46440094285023
1626177386751.07,-4.44961600895119
1626177386754.39,-4.4412499000132
1626177386757.72,-4.43057589895438
1626177386761.05,-4.43194620990112
1626177386764.37,-4.45899182069204
1626177386767.7,-4.4460099275124
1626177386771.03,-4.44622629239873
1626177386774.35,-4.45113056315548
1626177386777.68,-4.43447046690827
1626177386781.01,-4.42257039816027
1626177386784.33,-4.43800442671829
1626177386787.66,-4.45855909091939
1626177386790.99,-4.44896691429221
1626177386794.31,-4.44831781963322
1626177386797.64,-4.42682557425804
1626177386800.96,-4.44478385982321
1626177386804.29,-4.44088929186932
1626177386807.62,-4.45055359012527
1626177386810.94,-4.44485598145199
1626177386814.27,-4.43382137224929
1626177386817.6,-4.44680326542893
1626177386820.92,-4.43641775088522
1626177386824.25,-4.42927770963642
1626177386827.58,-4.45185177944324
1626177386830.9,-4.45113056315548
1626177386834.23,-4.45776575300285
1626177386837.55,-4.45884757743449
1626177386840.88,-4.4528614822461
1626177386844.21,-4.45682817182877
1626177386847.53,-4.46728580800126
1626177386850.86,-4.4254552633113
1626177386854.19,-4.4007175446412
1626177386857.51,-4.43490319668093
1626177386860.84,-4.46995430826596
1626177386864.17,-4.46966582175086
1626177386867.49,-4.46598761868329
1626177386870.82,-4.46151607769919
1626177386874.15,-4.45437603645039
1626177386877.47,-4.46281426701716
1626177386880.8,-4.44456749493688
1626177386884.12,-4.45617907716979
1626177386887.45,-4.45913606394959
1626177386890.78,-4.46137183444164
1626177386894.1,-4.46584337542574
1626177386897.43,-4.46699732148615
1626177386900.76,-4.46771853777391
1626177386904.08,-4.46649247008472
1626177386907.41,-4.47716647114354
1626177386910.74,-4.48163801212764
1626177386914.06,-4.45978515860858
1626177386917.39,-4.45668392857122
1626177386920.72,-4.46699732148615
1626177386924.04,-4.4784646604615
1626177386927.37,-4.4778876874313
1626177386930.69,-4.4641845779639
1626177386934.02,-4.4757961601968
1626177386937.35,-4.48459499890745
1626177386940.67,-4.46404033470635
1626177386944,-4.47651737648456
1626177386947.33,-4.49793750023097
1626177386950.65,-4.52123278632555
1626177386953.98,-4.45697241508632
1626177386957.31,-4.45682817182877
1626177386960.63,-4.4507699550116
1626177386963.96,-4.47622888996946
1626177386967.29,-4.47666161974211
1626177386970.61,-4.46533852402431
1626177386973.94,-4.47154098409903
1626177386977.26,-4.46367972656247
1626177386980.59,-4.48524409356643
1626177386983.92,-4.49173504015625
1626177386987.24,-4.45343845527631
1626177386990.57,-4.46122759118409
1626177386993.9,-4.47154098409903
1626177386997.22,-4.45754938811653
1626177387000.55,-4.46223729398695
1626177387003.88,-4.4638960914488
1626177387007.2,-4.46966582175086
1626177387010.53,-4.47334402481842
1626177387013.85,-4.42639284448538
1626177387017.18,-4.42639284448538
1626177387020.51,-4.4230752495617
1626177387023.83,-4.43165772338602
1626177387027.16,-4.42559950656885
1626177387030.49,-4.39069263824137
1626177387033.81,-4.36516158165474
1626177387037.14,-4.29722300734794
1626177387040.47,-4.26476827439884
1626177387043.79,-4.27940896504032
1626177387047.12,-4.32203284764681
1626177387050.45,-4.34092871438607
1626177387053.77,-4.34626571491548
1626177387057.1,-4.33097592961501
1626177387060.42,-4.34958330983917
1626177387063.75,-4.38304774559113
1626177387067.08,-4.42559950656885
1626177387070.4,-4.43648987251399
1626177387073.73,-4.45199602270079
1626177387077.06,-4.47211795712924
1626177387080.38,-4.48856168849012
1626177387083.71,-4.46591549705452
1626177387087.04,-4.47601252508313
1626177387090.36,-4.46497791588043
1626177387093.69,-4.47457009250761
1626177387097.02,-4.50197631144241
1626177387100.34,-4.4871192559146
1626177387103.67,-4.49988478420791
1626177387106.99,-4.51149636644082
1626177387110.32,-4.50450056844956
1626177387113.65,-4.49599021625402
1626177387116.97,-4.50954908246387
1626177387120.3,-4.51099151503939
1626177387123.63,-4.49180716178503
1626177387126.95,-4.49721628394321
1626177387130.28,-4.50103873026833
1626177387133.61,-4.49599021625402
1626177387136.93,-4.51055878526673
1626177387140.26,-4.50341874401793
1626177387143.59,-4.52209824587086
1626177387146.91,-4.52858919246068
1626177387150.24,-4.52498311102189
1626177387153.56,-4.50103873026833
1626177387156.89,-4.51517456950838
1626177387160.22,-4.52397340821903
1626177387163.54,-4.601504159153
1626177387166.87,-4.73882374034211
1626177387170.2,-4.77885124431267
1626177387173.52,-4.84570799418783
1626177387176.85,-4.78411612321331
1626177387180.18,-4.71653815705039
1626177387183.5,-4.51373213693287
1626177387186.83,-4.34684268794569
1626177387190.16,-3.82951424473694
1626177387193.48,-3.0753383726285
1626177387196.81,-2.73528489295064
1626177387200.13,-2.4717524614039
1626177387203.46,-2.51408785749529
1626177387206.79,-2.67787607644511
1626177387210.11,-3.16354312462129
1626177387213.44,-3.67863579733798
1626177387216.77,-3.91230987457155
1626177387220.09,-4.29751149386305
1626177387223.42,-4.42761891217457
1626177387226.75,-4.43584077785501
1626177387230.07,-4.36653189260148
1626177387233.4,-4.34979967472549
1626177387236.72,-4.35593001317144
1626177387240.05,-4.3667482574878
1626177387243.38,-4.42026250603944
1626177387246.7,-4.40021269323977
1626177387250.03,-4.42422919562211
1626177387253.36,-4.41485338388126
1626177387256.68,-4.42033462766822
1626177387260.01,-4.4206952358121
1626177387263.34,-4.43490319668093
1626177387266.66,-4.45935242883592
1626177387269.99,-4.44536083285342
1626177387273.32,-4.43548016971113
1626177387276.64,-4.44355779213402
1626177387279.97,-4.43475895342338
1626177387283.29,-4.43136923687091
1626177387286.62,-4.42531102005375
1626177387289.95,-4.42271464141782
1626177387293.27,-4.44687538705771
1626177387296.6,-4.41874795183515
1626177387299.93,-4.43648987251399
1626177387303.25,-4.43216257478745
1626177387306.58,-4.41759400577474
1626177387309.91,-4.40115027441386
1626177387313.23,-4.41723339763086
1626177387316.56,-4.42206554675884
1626177387319.89,-4.3962460036571
1626177387323.21,-4.37951378578112
1626177387326.54,-4.37518648805457
1626177387329.86,-4.37432102850926
1626177387333.19,-4.38449017816665
1626177387336.52,-4.38795201634789
1626177387339.84,-4.39249567896076
1626177387343.17,-4.37518648805457
1626177387346.5,-4.36746947377556
1626177387349.82,-4.34958330983917
1626177387353.15,-4.36696462237413
1626177387356.48,-4.34107295764362
1626177387359.8,-4.33306745684951
1626177387363.13,-4.33624080851565
1626177387366.46,-4.32419649651009
1626177387369.78,-4.31042126541391
1626177387373.11,-4.31467644151168
1626177387376.43,-4.29029933098547
1626177387379.76,-4.28878477678118
1626177387383.09,-4.26534524742904
1626177387386.41,-4.26967254515559
1626177387389.74,-4.26729253140599
1626177387393.07,-4.23966994758486
1626177387396.39,-4.21370616122558
1626177387399.72,-4.20822491743862
1626177387403.05,-4.17165925164929
1626177387406.37,-4.15528764191719
1626177387409.7,-4.16401435899906
1626177387413.02,-4.14475788411592
1626177387416.35,-4.12802566623994
1626177387419.68,-4.10537947480434
1626177387423,-4.10480250177413
1626177387426.33,-4.09701336586635
1626177387429.66,-4.09117151393551
1626177387432.98,-4.06924653878767
1626177387436.31,-4.07076109299196
1626177387439.64,-4.04494154989023
1626177387442.96,-4.03203177833936
1626177387446.29,-4.0310220755365
1626177387449.62,-4.04508579314778
1626177387452.94,-4.0292190348171
1626177387456.27,-4.0310220755365
1626177387459.59,-4.0566252537519
1626177387462.92,-4.07314110674156
1626177387466.25,-4.05878890261518
1626177387469.57,-4.08222843196731
1626177387472.9,-4.09167636533694
1626177387476.23,-4.14281060013897
1626177387479.55,-4.17360653562624
1626177387482.88,-4.18319871225342
1626177387486.21,-4.2201971078154
1626177387489.53,-4.26123431458882
1626177387492.86,-4.27674046477562
1626177387496.19,-4.29332843939405
1626177387499.51,-4.30998853564126
1626177387502.84,-4.32051829344252
1626177387506.16,-4.34020749809831
1626177387509.49,-4.37489800153947
1626177387512.82,-4.38384108350767
1626177387516.14,-4.37792710994805
1626177387519.47,-4.37049858218415
1626177387522.8,-4.36703674400291
1626177387526.12,-4.37114767684313
1626177387529.45,-4.37619619085743
1626177387532.78,-4.38932232729463
1626177387536.1,-4.41319458641941
1626177387539.43,-4.39660661180098
1626177387542.76,-4.3867259486587
1626177387546.08,-4.38636534051482
1626177387549.41,-4.41124730244247
1626177387552.73,-4.40201573395917
1626177387556.06,-4.41153578895757
1626177387559.39,-4.41261761338921
1626177387562.71,-4.40713636960225
1626177387566.04,-4.41103093755614
1626177387569.37,-4.42019038441067
1626177387572.69,-4.41543035691146
1626177387576.02,-4.39343326013485
1626177387579.35,-4.39465932782404
1626177387582.67,-4.39588539551322
1626177387586,-4.39891450392181
1626177387589.32,-4.39458720619526
1626177387592.65,-4.39905874717936
1626177387595.98,-4.40677576145837
1626177387599.3,-4.39141385452913
1626177387602.63,-4.39754419297507
1626177387605.96,-4.38874535426442
1626177387609.28,-4.39559690899812
1626177387612.61,-4.38838474612054
1626177387615.94,-4.38636534051482
1626177387619.26,-4.38961081380973
1626177387622.59,-4.36956100101006
1626177387625.92,-4.38528351608318
1626177387629.24,-4.37432102850926
1626177387632.57,-4.37771074506172
1626177387635.89,-4.36920039286618
1626177387639.22,-4.37006585241149
1626177387642.55,-4.37821559646316
1626177387645.87,-4.38023500206888
1626177387649.2,-4.38326411047746
1626177387652.53,-4.38362471862134
1626177387655.85,-4.36811856843454
1626177387659.18,-4.35715608086062
1626177387662.51,-4.36126701370084
1626177387665.83,-4.37698952877397
1626177387669.16,-4.36011306764043
1626177387672.49,-4.36025731089798
1626177387675.81,-4.37028221729782
1626177387679.14,-4.38456229979543
1626177387682.46,-4.38586048911339
1626177387685.79,-4.36941675775251
1626177387689.12,-4.3735998122215
1626177387692.44,-4.37554709619845
1626177387695.77,-4.38203804278827
1626177387699.1,-4.37662892063009
1626177387702.42,-4.38304774559113
1626177387705.75,-4.38730292168891
1626177387709.08,-4.38290350233358
1626177387712.4,-4.3843459349091
1626177387715.73,-4.38449017816665
1626177387719.06,-4.38542775934074
1626177387722.38,-4.379874393925
1626177387725.71,-4.37374405547906
1626177387729.03,-4.39307265199097
1626177387732.36,-4.39227931407444
1626177387735.69,-4.39379386827873
1626177387739.01,-4.4049005991102
1626177387742.34,-4.379874393925
1626177387745.67,-4.39610176039955
1626177387748.99,-4.39682297668731
1626177387752.32,-4.39213507081688
1626177387755.65,-4.41665642460065
1626177387758.97,-4.41110305918492
1626177387762.3,-4.41629581645677
1626177387765.62,-4.36948887938128
1626177387768.95,-4.38405744839399
1626177387772.28,-4.395957517142
1626177387775.6,-4.38290350233358
1626177387778.93,-4.37684528551642
1626177387782.26,-4.37886469112214
1626177387785.58,-4.40893941032164
1626177387788.91,-4.43548016971113
1626177387792.24,-4.3983375308916
1626177387795.56,-4.39667873342976
1626177387798.89,-4.38917808403708
1626177387802.22,-4.38009075881133
1626177387805.54,-4.37713377203152
1626177387808.87,-4.38449017816665
1626177387812.19,-4.3977605578614
1626177387815.52,-4.40345816653468
1626177387818.85,-4.41088669429859
1626177387822.17,-4.39631812528588
1626177387825.5,-4.40692000471592
1626177387828.83,-4.41571884342657
1626177387832.15,-4.38319198884868
1626177387835.48,-4.41723339763086
1626177387838.81,-4.40259270698937
1626177387842.13,-4.38867323263565
1626177387845.46,-4.36386339233677
1626177387848.79,-4.37893681275091
1626177387852.11,-4.3932890168773
1626177387855.44,-4.37338344733518
1626177387858.76,-4.375691339456
1626177387862.09,-4.3849229079393
1626177387865.42,-4.36494521676841
1626177387868.74,-4.33717838968973
1626177387872.07,-4.30284849439245
1626177387875.4,-4.30342546742266
1626177387878.72,-4.29513148011344
1626177387882.05,-4.25330093542349
1626177387885.38,-4.2639749364823
1626177387888.7,-4.27226892379152
1626177387892.03,-4.28301504647911
1626177387895.36,-4.30587760280104
1626177387898.68,-4.31157521147432
1626177387902.01,-4.31316188730739
1626177387905.33,-4.31460431988291
1626177387908.66,-4.33789960597749
1626177387911.99,-4.35867063506492
1626177387915.31,-4.38427381328032
1626177387918.64,-4.38319198884868
1626177387921.97,-4.40497272073897
1626177387925.29,-4.42285888467537
1626177387928.62,-4.4117521538439
1626177387931.95,-4.4123291268741
1626177387935.27,-4.416223694828
1626177387938.6,-4.41550247854024
1626177387941.93,-4.41211276198778
1626177387945.25,-4.4186037085776
1626177387948.58,-4.42985468266662
1626177387951.9,-4.43757169694563
1626177387955.23,-4.44557719773974
1626177387958.56,-4.4391583727787
1626177387961.88,-4.43742745368808
1626177387965.21,-4.44413476516423
1626177387968.54,-4.44889479266343
1626177387971.86,-4.464473064479
1626177387975.19,-4.45964091535102
1626177387978.52,-4.444206886793
1626177387981.84,-4.44139414327075
1626177387985.17,-4.44860630614833
1626177387988.49,-4.44550507611097
1626177387991.82,-4.44925540080731
1626177387995.15,-4.44543295448219
1626177387998.47,-4.44593780588362
1626177388001.8,-4.47110825432637
1626177388005.13,-4.5124339476149
1626177388008.45,-4.6128272548708
1626177388011.78,-4.68631919459333
1626177388015.11,-4.72266849549633
1626177388018.43,-4.73889586197089
1626177388021.76,-4.62552066153534
1626177388025.09,-4.55527419510772
1626177388028.41,-4.28972235795526
1626177388031.74,-3.76215264346035
1626177388035.06,-3.41142516272368
1626177388038.39,-2.76009473324951
1626177388041.72,-2.56219298388874
1626177388045.04,-2.5304594672274
1626177388048.37,-2.77314874805793
1626177388051.7,-3.17327954450602
1626177388055.02,-3.39801053977138
1626177388058.35,-3.86579142401116
1626177388061.68,-4.25741186826371
1626177388065,-4.34244326859036
1626177388068.33,-4.38831262449177
1626177388071.66,-4.31770554992027
1626177388074.98,-4.3229704288209
1626177388078.31,-4.31085399518657
1626177388081.63,-4.32051829344252
1626177388084.96,-4.34179417393138
1626177388088.29,-4.34814087726365
1626177388091.61,-4.34727541771834
1626177388094.94,-4.36472885188208
1626177388098.27,-4.35354999942184
1626177388101.59,-4.37460951502437
1626177388104.92,-4.38571624585584
1626177388108.25,-4.39790480111895
1626177388111.57,-4.38470654305298
1626177388114.9,-4.38607685399972
1626177388118.23,-4.39263992221831
1626177388121.55,-4.41420428922228
1626177388124.88,-4.3843459349091
1626177388128.2,-4.38081197509908
1626177388131.53,-4.36718098726046
1626177388134.86,-4.37641255574376
1626177388138.18,-4.39018778683994
1626177388141.51,-4.38405744839399
1626177388144.84,-4.37698952877397
1626177388148.16,-4.37879256949336
1626177388151.49,-4.37446527176681
1626177388154.82,-4.35823790529226
1626177388158.14,-4.35686759434552
1626177388161.47,-4.37648467737254
1626177388164.79,-4.36783008191944
1626177388168.12,-4.3524681749902
1626177388171.45,-4.34871785029386
1626177388174.77,-4.36018518926921
1626177388178.1,-4.33047107821358
1626177388181.43,-4.35318939127796
1626177388184.75,-4.33898143040913
1626177388188.08,-4.32866803749419
1626177388191.41,-4.32614378048704
1626177388194.73,-4.33241836219053
1626177388198.06,-4.30941156261105
1626177388201.39,-4.28272655996401
1626177388204.71,-4.27933684341155
1626177388208.04,-4.3143158333678
1626177388211.36,-4.28972235795526
1626177388214.69,-4.26772526117864
1626177388218.02,-4.27183619401886
1626177388221.34,-4.2434202722812
1626177388224.67,-4.23620810940362
1626177388228,-4.22106256736071
1626177388231.32,-4.22250499993622
1626177388234.65,-4.21276858005149
1626177388237.98,-4.18774237486629
1626177388241.3,-4.18190052293545
1626177388244.63,-4.15557612843229
1626177388247.96,-4.15045549278921
1626177388251.28,-4.12506867946013
1626177388254.61,-4.11872197612786
1626177388257.93,-4.10040308241881
1626177388261.26,-4.08093024264935
1626177388264.59,-4.07256413371135
1626177388267.91,-4.07970417496016
1626177388271.24,-4.0560482807217
1626177388274.57,-4.03094995390772
1626177388277.89,-4.02669477780995
1626177388281.22,-4.02705538595383
1626177388284.55,-4.03181541345303
1626177388287.87,-4.02546871012076
1626177388291.2,-4.0104674113354
1626177388294.53,-4.00015401842046
1626177388297.85,-4.00534677569232
1626177388301.18,-4.01039528970662
1626177388304.5,-4.01876139864461
1626177388307.83,-4.05713010515333
1626177388311.16,-4.07083321462073
1626177388314.48,-4.09376789257144
1626177388317.81,-4.13689662657936
1626177388321.14,-4.14266635688142
1626177388324.46,-4.17093803536153
1626177388327.79,-4.18471326645771
1626177388331.12,-4.19163694282018
1626177388334.44,-4.21219160702129
1626177388337.77,-4.26801374769375
1626177388341.09,-4.28323141136544
1626177388344.42,-4.28921750655383
1626177388347.75,-4.27097073447356
1626177388351.07,-4.28229383019135
1626177388354.4,-4.3089788328384
1626177388357.73,-4.32369164510866
1626177388361.05,-4.32881228075174
1626177388364.38,-4.33537534897034
1626177388367.71,-4.37323920407763
1626177388371.03,-4.35838214854981
1626177388374.36,-4.35794941877716
1626177388377.69,-4.37100343358558
1626177388381.01,-4.37396042036538
1626177388384.34,-4.36054579741309
1626177388387.66,-4.37756650180417
1626177388390.99,-4.37626831248621
1626177388394.32,-4.38658170540115
1626177388397.64,-4.37453739339559
1626177388400.97,-4.3980490443765
1626177388404.3,-4.36444036536698
1626177388407.62,-4.37929742089479
1626177388410.95,-4.3825428941897
1626177388414.28,-4.3849229079393
1626177388417.6,-4.36162762184472
1626177388420.93,-4.36097852718574
1626177388424.26,-4.35953609461023
1626177388427.58,-4.37237374453232
1626177388430.91,-4.36307005442024
1626177388434.23,-4.36581067631372
1626177388437.56,-4.36054579741309
1626177388440.89,-4.36234883813248
1626177388444.21,-4.37504224479702
1626177388447.54,-4.36292581116269
1626177388450.87,-4.37100343358558
1626177388454.19,-4.36624340608637
1626177388457.52,-4.36530582491229
1626177388460.85,-4.36754159540434
1626177388464.17,-4.37475375828192
1626177388467.5,-4.37143616335823
1626177388470.83,-4.35239605336142
1626177388474.15,-4.33941416018178
1626177388477.48,-4.35138635055856
1626177388480.8,-4.35657910783042
1626177388484.13,-4.3500881612406
1626177388487.46,-4.36213247324615
1626177388490.78,-4.34583298514283
1626177388494.11,-4.34431843093853
1626177388497.44,-4.33854870063647
1626177388500.76,-4.34366933627955
1626177388504.09,-4.3459051067716
1626177388507.42,-4.3322019973042
1626177388510.74,-4.3524681749902
1626177388514.07,-4.35059301264203
1626177388517.4,-4.35405485082327
1626177388520.72,-4.33054319984236
1626177388524.05,-4.32946137541072
1626177388527.37,-4.35326151290673
1626177388530.7,-4.34741966097589
1626177388534.03,-4.33285109196318
1626177388537.35,-4.33732263294728
1626177388540.68,-4.34359721465078
1626177388544.01,-4.34287599836302
1626177388547.33,-4.3363850517732
1626177388550.66,-4.35210756684632
1626177388553.99,-4.33350018662217
1626177388557.31,-4.34042386298464
1626177388560.64,-4.37525860968335
1626177388563.96,-4.35160271544489
1626177388567.29,-4.35174695870244
1626177388570.62,-4.35564152665633
1626177388573.94,-4.33624080851565
1626177388577.27,-4.34287599836302
1626177388580.6,-4.34987179635427
1626177388583.92,-4.34972755309672
1626177388587.25,-4.3324904838193
1626177388590.58,-4.34994391798305
1626177388593.9,-4.35044876938448
1626177388597.23,-4.36833493332087
1626177388600.56,-4.38117258324296
1626177388603.88,-4.34201053881771
1626177388607.21,-4.34597722840038
1626177388610.53,-4.33357230825094
1626177388613.86,-4.37374405547906
1626177388617.19,-4.36083428392819
1626177388620.51,-4.36133913532962
1626177388623.84,-4.36811856843454
1626177388627.17,-4.36739735214679
1626177388630.49,-4.3754028529409
1626177388633.82,-4.38766352983278
1626177388637.15,-4.3688397847223
1626177388640.47,-4.37504224479702
1626177388643.8,-4.35946397298145
1626177388647.13,-4.35520879688368
1626177388650.45,-4.36775796029067
1626177388653.78,-4.35737244574695
1626177388657.1,-4.35419909408082
1626177388660.43,-4.37259010941864
1626177388663.76,-4.37698952877397
1626177388667.08,-4.38715867843135
1626177388670.41,-4.37893681275091
1626177388673.74,-4.36508946002596
1626177388677.06,-4.36249308139003
1626177388680.39,-4.34972755309672
1626177388683.72,-4.35881487832247
1626177388687.04,-4.34201053881771
1626177388690.37,-4.34006325484076
1626177388693.7,-4.3342935245387
1626177388697.02,-4.32037405018497
1626177388700.35,-4.31482068476924
1626177388703.67,-4.28683749280423
1626177388707,-4.28734234420566
1626177388710.33,-4.26491251765639
1626177388713.65,-4.23007777095768
1626177388716.98,-4.22438016228439
1626177388720.31,-4.24486270485672
1626177388723.63,-4.25243547587818
1626177388726.96,-4.26238826064924
1626177388730.29,-4.2681579909513
1626177388733.61,-4.27342286985193
1626177388736.94,-4.28085139761584
1626177388740.26,-4.31907586086701
1626177388743.59,-4.35686759434552
1626177388746.92,-4.36480097351086
1626177388750.24,-4.39444296293771
1626177388753.57,-4.39415447642261
1626177388756.9,-4.37417678525171
1626177388760.22,-4.3956690306269
1626177388763.55,-4.3888174758932
1626177388766.88,-4.395957517142
1626177388770.2,-4.39263992221831
1626177388773.53,-4.39848177414915
1626177388776.86,-4.39790480111895
1626177388780.18,-4.40417938282244
1626177388783.51,-4.41896431672148
1626177388786.83,-4.41081457266981
1626177388790.16,-4.41499762713881
1626177388793.49,-4.39639024691466
1626177388796.81,-4.41088669429859
1626177388800.14,-4.40374665304979
1626177388803.47,-4.41824310043372
1626177388806.79,-4.40843455892021
1626177388810.12,-4.41023759963961
1626177388813.45,-4.41290609990431
1626177388816.77,-4.41795461391862
1626177388820.1,-4.41290609990431
1626177388823.43,-4.41016547801083
1626177388826.75,-4.40958850498062
1626177388830.08,-4.42942195289397
1626177388833.4,-4.44875054940588
1626177388836.73,-4.55693299256956
1626177388840.06,-4.67312093652736
1626177388843.38,-4.71415814330079
1626177388846.71,-4.75598868799075
1626177388850.04,-4.69749804705358
1626177388853.36,-4.63244433789782
1626177388856.69,-4.36775796029067
1626177388860.02,-3.90343891423213
1626177388863.34,-3.55364901466954
1626177388866.67,-2.82183084748159
1626177388870,-2.39155321020522
1626177388873.32,-2.38643257456214
1626177388876.65,-2.47874825939515
1626177388879.97,-2.90549193686151
1626177388883.3,-3.1581340024631
1626177388886.63,-3.6437289290105
1626177388889.95,-4.10235036639576
1626177388893.28,-4.24637725906101
1626177388896.61,-4.36011306764043
1626177388899.93,-4.30905095446717
1626177388903.26,-4.2845296006834
1626177388906.59,-4.27645197826052
1626177388909.91,-4.29174176356098
1626177388913.24,-4.28431323579708
1626177388916.56,-4.29455450708324
1626177388919.89,-4.33450988942503
1626177388923.22,-4.31330613056494
1626177388926.54,-4.359608216239
1626177388929.87,-4.34064022787097
1626177388933.2,-4.33386079476604
1626177388936.52,-4.31280127916351
1626177388939.85,-4.34792451237732
1626177388943.18,-4.35809366203471
1626177388946.5,-4.34792451237732
1626177388949.83,-4.34172205230261
1626177388953.16,-4.33926991692423
1626177388956.48,-4.3369620248034
1626177388959.81,-4.3345820110538
1626177388963.13,-4.33494261919768
1626177388966.46,-4.32203284764681
1626177388969.79,-4.35160271544489
1626177388973.11,-4.34107295764362
1626177388976.44,-4.3229704288209
1626177388979.77,-4.33342806499339
1626177388983.09,-4.31409946848148
1626177388986.42,-4.31417159011025
1626177388989.75,-4.29455450708324
1626177388993.07,-4.29296783125017
1626177388996.4,-4.32614378048704
1626177388999.73,-4.30364183230899
1626177389003.05,-4.28654900628913
1626177389006.38,-4.30256000787735
1626177389009.7,-4.29902604806734
1626177389013.03,-4.29210237170486
1626177389016.36,-4.27731743780582
1626177389019.68,-4.27363923473826
1626177389023.01,-4.27594712685908
1626177389026.34,-4.26195553087658
1626177389029.66,-4.25495973288533
1626177389032.99,-4.2452233130006
1626177389036.32,-4.25019970538613
1626177389039.64,-4.23822751500935
1626177389042.97,-4.23801115012302
1626177389046.3,-4.20404186296962
1626177389049.62,-4.20137336270492
1626177389052.95,-4.19077148327488
1626177389056.27,-4.18716540183609
1626177389059.6,-4.17526533308808
1626177389062.93,-4.14980639813023
1626177389066.25,-4.13761784286712
1626177389069.58,-4.13393963979955
1626177389072.91,-4.14713789786552
1626177389076.23,-4.11302436745457
1626177389079.56,-4.10256673128208
1626177389082.89,-4.06982351181787
1626177389086.21,-4.04999006390453
1626177389089.54,-4.05374038860087
1626177389092.86,-4.0336905758012
1626177389096.19,-4.0244590073179
1626177389099.52,-4.01486683069072
1626177389102.84,-3.99395155834574
1626177389106.17,-3.97851752978772
1626177389109.5,-3.97361325903097
1626177389112.82,-3.97000717759218
1626177389116.15,-3.97072839387994
1626177389119.48,-3.9693580829332
1626177389122.8,-3.95962166304847
1626177389126.13,-3.92817663290222
1626177389129.46,-3.93445121460572
1626177389132.78,-3.97130536691014
1626177389136.11,-3.9878212198998
1626177389139.43,-3.9970527883831
1626177389142.76,-4.04321063079961
1626177389146.09,-4.09131575719306
1626177389149.41,-4.09246970325347
1626177389152.74,-4.09650851446492
1626177389156.07,-4.14562334366123
1626177389159.39,-4.1427384785102
1626177389162.72,-4.1656731564609
1626177389166.05,-4.19863274081144
1626177389169.37,-4.2044024711135
1626177389172.7,-4.22553410834481
1626177389176.03,-4.24904575932571
1626177389179.35,-4.25582519243064
1626177389182.68,-4.26087370644494
1626177389186,-4.27205255890519
1626177389189.33,-4.26945618026926
1626177389192.66,-4.29433814219691
1626177389195.98,-4.28878477678118
1626177389199.31,-4.30537275139961
1626177389202.64,-4.30342546742266
1626177389205.96,-4.30457941348307
1626177389209.29,-4.29282358799262
1626177389212.62,-4.29996362924142
1626177389215.94,-4.32412437488131
1626177389219.27,-4.3345820110538
1626177389222.6,-4.33003834844093
1626177389225.92,-4.33133653775889
1626177389229.25,-4.31092611681534
1626177389232.57,-4.31474856314046
1626177389235.9,-4.33919779529545
1626177389239.23,-4.33566383548544
1626177389242.55,-4.3187873743519
1626177389245.88,-4.33840445737892
1626177389249.21,-4.32960561866827
1626177389252.53,-4.29830483177958
1626177389255.86,-4.31208006287576
1626177389259.19,-4.31619099571598
1626177389262.51,-4.32203284764681
1626177389265.84,-4.29715088571917
1626177389269.17,-4.31114248170167
1626177389272.49,-4.31056550867146
1626177389275.82,-4.32051829344252
1626177389279.14,-4.31763342829149
1626177389282.47,-4.31712857689006
1626177389285.8,-4.31258491427719
1626177389289.12,-4.32051829344252
1626177389292.45,-4.35016028286937
1626177389295.78,-4.33104805124379
1626177389299.1,-4.32758621306255
1626177389302.43,-4.30155030507449
1626177389305.76,-4.32376376673743
1626177389309.08,-4.3164073606023
1626177389312.41,-4.3089788328384
1626177389315.73,-4.30970004912615
1626177389319.06,-4.31619099571598
1626177389322.39,-4.33732263294728
1626177389325.71,-4.32304255044968
1626177389329.04,-4.30933944098228
1626177389332.37,-4.32946137541072
1626177389335.69,-4.32462922628274
1626177389339.02,-4.32044617181375
1626177389342.35,-4.32917288889562
1626177389345.67,-4.33573595711422
1626177389349,-4.34943906658162
1626177389352.33,-4.33854870063647
1626177389355.65,-4.33710626806096
1626177389358.98,-4.34958330983917
1626177389362.3,-4.33386079476604
1626177389365.63,-4.34511176885507
1626177389368.96,-4.33573595711422
1626177389372.28,-4.33227411893298
1626177389375.61,-4.32931713215317
1626177389378.94,-4.32109526647273
1626177389382.26,-4.3369620248034
1626177389385.59,-4.35773305389083
1626177389388.92,-4.33212987567543
1626177389392.24,-4.35160271544489
1626177389395.57,-4.35701183760307
1626177389398.9,-4.34864572866508
1626177389402.22,-4.33609656525809
1626177389405.55,-4.32758621306255
1626177389408.87,-4.33854870063647
1626177389412.2,-4.3482851205212
1626177389415.53,-4.33047107821358
1626177389418.85,-4.32621590211581
1626177389422.18,-4.34395782279466
1626177389425.51,-4.34222690370404
1626177389428.83,-4.3479966340061
1626177389432.16,-4.34330872813567
1626177389435.49,-4.35145847218734
1626177389438.81,-4.34727541771834
1626177389442.14,-4.33804384923504
1626177389445.47,-4.34035174135587
1626177389448.79,-4.34258751184792
1626177389452.12,-4.32700924003234
1626177389455.44,-4.3411450792724
1626177389458.77,-4.35044876938448
1626177389462.1,-4.33782748434871
1626177389465.42,-4.35556940502756
1626177389468.75,-4.34633783654426
1626177389472.08,-4.32657651025969
1626177389475.4,-4.33364442987972
1626177389478.73,-4.33364442987972
1626177389482.06,-4.32974986192582
1626177389485.38,-4.3369620248034
1626177389488.71,-4.32636014537336
1626177389492.03,-4.33660141665952
1626177389495.36,-4.33068744309991
1626177389498.69,-4.33688990317463
1626177389502.01,-4.3324904838193
1626177389505.34,-4.33299533522074
1626177389508.67,-4.32686499677479
1626177389511.99,-4.35311726964918
1626177389515.32,-4.33890930878035
1626177389518.65,-4.32859591586541
1626177389521.97,-4.32520619931295
1626177389525.3,-4.3119358196182
1626177389528.63,-4.33487049756891
1626177389531.95,-4.30566123791471
1626177389535.28,-4.30104545367306
1626177389538.6,-4.30869034632329
1626177389541.93,-4.29253510147752
1626177389545.26,-4.29981938598387
1626177389548.58,-4.2863326414028
1626177389551.91,-4.25669065197595
1626177389555.24,-4.2362802310324
1626177389558.56,-4.19776728126613
1626177389561.89,-4.15874948009842
1626177389565.22,-4.15997554778761
1626177389568.54,-4.17411138702767
1626177389571.87,-4.18997814535834
1626177389575.2,-4.20396974134085
1626177389578.52,-4.21716799940681
1626177389581.85,-4.2458002860308
1626177389585.17,-4.24363663716753
1626177389588.5,-4.25798884129391
1626177389591.83,-4.270826491216
1626177389595.15,-4.29123691215955
1626177389598.48,-4.31597463082965
1626177389601.81,-4.33652929503075
1626177389605.13,-4.33530322734156
1626177389608.46,-4.33588020037177
1626177389611.79,-4.34309236324935
1626177389615.11,-4.34972755309672
1626177389618.44,-4.33537534897034
1626177389621.77,-4.34662632305936
1626177389625.09,-4.35520879688368
1626177389628.42,-4.37626831248621
1626177389631.74,-4.375691339456
1626177389635.07,-4.36494521676841
1626177389638.4,-4.37338344733518
1626177389641.72,-4.37021009566904
1626177389645.05,-4.38088409672786
1626177389648.38,-4.38730292168891
1626177389651.7,-4.38795201634789
1626177389655.03,-4.39848177414915
1626177389658.36,-4.40692000471592
1626177389661.68,-4.39516417922547
1626177389665.01,-4.38261501581848
1626177389668.33,-4.39163021941545
1626177389671.66,-4.3977605578614
1626177389674.99,-4.38838474612054
1626177389678.31,-4.3667482574878
1626177389681.64,-4.40129451767141
1626177389684.97,-4.47017067315229
1626177389688.29,-4.60164840241056
1626177389691.62,-4.67203911209573
1626177389694.95,-4.73702069962271
1626177389698.27,-4.67578943679207
1626177389701.6,-4.60958178157589
1626177389704.93,-4.46050637489633
1626177389708.25,-4.08518541874712
1626177389711.58,-3.77996668576797
1626177389714.9,-3.06718862857683
1626177389718.23,-2.44283168826481
1626177389721.56,-2.36061303146041
1626177389724.88,-2.3689791403984
1626177389728.21,-2.74271342071455
1626177389731.54,-3.00047612195922
1626177389734.86,-3.4751085609327
1626177389738.19,-3.92478691634976
1626177389741.52,-4.12326563874073
1626177389744.84,-4.30544487302838
1626177389748.17,-4.28049078947196
1626177389751.5,-4.25185850284797
1626177389754.82,-4.23584750125974
1626177389758.15,-4.24991121887102
1626177389761.47,-4.26015249015719
1626177389764.8,-4.28164473553237
1626177389768.13,-4.28438535742585
1626177389771.45,-4.30140606181694
1626177389774.78,-4.29513148011344
1626177389778.11,-4.30652669746002
1626177389781.43,-4.32542256419928
1626177389784.76,-4.31330613056494
1626177389788.09,-4.34128932252995
1626177389791.41,-4.33854870063647
1626177389794.74,-4.32830742935031
1626177389798.07,-4.33277897033441
1626177389801.39,-4.3411450792724
1626177389804.72,-4.35838214854981
1626177389808.04,-4.34150568741628
1626177389811.37,-4.32910076726684
1626177389814.7,-4.31655160385985
1626177389818.02,-4.31900373923823
1626177389821.35,-4.33068744309991
1626177389824.68,-4.32203284764681
1626177389828,-4.32556680745683
1626177389831.33,-4.31042126541391
1626177389834.66,-4.29303995287895
1626177389837.98,-4.29873756155223
1626177389841.31,-4.31337825219372
1626177389844.64,-4.30623821094492
1626177389847.96,-4.29311207450772
1626177389851.29,-4.2776780459497
1626177389854.61,-4.28878477678118
1626177389857.94,-4.27183619401886
1626177389861.27,-4.27133134261743
1626177389864.59,-4.28568354674382
1626177389867.92,-4.25517609777166
1626177389871.25,-4.24846878629551
1626177389874.57,-4.24608877254591
1626177389877.9,-4.24947848909837
1626177389881.23,-4.24875727281061
1626177389884.55,-4.23310687936626
1626177389887.88,-4.20137336270492
1626177389891.2,-4.19596424054673
1626177389894.53,-4.1957478756604
1626177389897.86,-4.19459392959999
1626177389901.18,-4.18218900945056
1626177389904.51,-4.17778959009523
1626177389907.84,-4.1677646836954
1626177389911.16,-4.15391733097045
1626177389914.49,-4.1382669375261
1626177389917.82,-4.13119901790607
1626177389921.14,-4.11908258427174
1626177389924.47,-4.09513820351818
1626177389927.8,-4.07249201208258
1626177389931.12,-4.06326044359928
1626177389934.45,-4.04429245523124
1626177389937.77,-4.04364336057226
1626177389941.1,-4.03974879261837
1626177389944.43,-4.00779891107069
1626177389947.75,-3.99561035580759
1626177389951.08,-3.9949612611486
1626177389954.41,-3.96358835263113
1626177389957.73,-3.95601558160968
1626177389961.06,-3.95991014956357
1626177389964.39,-3.9371918364992
1626177389967.71,-3.93149422782591
1626177389971.04,-3.92118083491097
1626177389974.37,-3.92521964612241
1626177389977.69,-3.9258687407814
1626177389981.02,-3.94620704009617
1626177389984.34,-3.98226785448406
1626177389987.67,-3.98911940921776
1626177389991,-4.01472258743317
1626177389994.32,-4.05114400996494
1626177389997.65,-4.06895805227256
1626177390000.98,-4.1159092326056
1626177390004.3,-4.15716280426536
1626177390007.63,-4.15889372335598
1626177390010.96,-4.16552891320335
1626177390014.28,-4.20620551183289
1626177390017.61,-4.21738436429314
1626177390020.94,-4.24659362394734
1626177390024.26,-4.26390281485353
1626177390027.59,-4.26779738280742
1626177390030.91,-4.28698173606178
1626177390034.24,-4.29657391268896
1626177390037.57,-4.31042126541391
1626177390040.89,-4.30652669746002
1626177390044.22,-4.32123950973028
1626177390047.55,-4.34467903908241
1626177390050.87,-4.3551366752549
1626177390054.2,-4.34705905283201
1626177390057.53,-4.35088149915713
1626177390060.85,-4.3456166202565
1626177390064.18,-4.36018518926921
1626177390067.5,-4.35730032411818
1626177390070.83,-4.36480097351086
1626177390074.16,-4.359608216239
1626177390077.48,-4.36025731089798
1626177390080.81,-4.36278156790514
1626177390084.14,-4.37864832623581
1626177390087.46,-4.37367193385028
1626177390090.79,-4.37266223104742
1626177390094.12,-4.36444036536698
1626177390097.44,-4.37936954252357
1626177390100.77,-4.3619882299886
1626177390104.1,-4.375691339456
1626177390107.42,-4.36869554146475
1626177390110.75,-4.35946397298145
1626177390114.07,-4.35383848593694
1626177390117.4,-4.36263732464758
1626177390120.73,-4.37172464987333
1626177390124.05,-4.37323920407763
1626177390127.38,-4.37965802903867
1626177390130.71,-4.37655679900131
1626177390134.03,-4.36833493332087
1626177390137.36,-4.36768583866189
1626177390140.69,-4.36126701370084
1626177390144.01,-4.3688397847223
1626177390147.34,-4.36516158165474
1626177390150.67,-4.3598967027541
1626177390153.99,-4.35138635055856
1626177390157.32,-4.35968033786778
1626177390160.64,-4.35593001317144
1626177390163.97,-4.35023240449815
1626177390167.3,-4.35874275669369
1626177390170.62,-4.38023500206888
1626177390173.95,-4.37136404172946
1626177390177.28,-4.37735013691785
1626177390180.6,-4.3461935932867
1626177390183.93,-4.36364702745045
1626177390187.26,-4.36105064881452
1626177390190.58,-4.35506455362613
1626177390193.91,-4.3780713532056
1626177390197.24,-4.37590770434233
1626177390200.56,-4.37929742089479
1626177390203.89,-4.37410466362294
1626177390207.21,-4.36653189260148
1626177390210.54,-4.36321429767779
1626177390213.87,-4.37504224479702
1626177390217.19,-4.36819069006332
1626177390220.52,-4.36761371703311
1626177390223.85,-4.36177186510228
1626177390227.17,-4.38766352983278
1626177390230.5,-4.37821559646316
1626177390233.83,-4.35917548646635
1626177390237.15,-4.37107555521435
1626177390240.48,-4.3938659899075
1626177390243.8,-4.39725570645996
1626177390247.13,-4.37735013691785
1626177390250.46,-4.38860111100687
1626177390253.78,-4.38369684025012
1626177390257.11,-4.37576346108478
1626177390260.44,-4.38759140820401
1626177390263.76,-4.3914859761579
1626177390267.09,-4.37619619085743
1626177390270.42,-4.37222950127476
1626177390273.74,-4.37165252824456
1626177390277.07,-4.38888959752197
1626177390280.4,-4.39018778683994
1626177390283.72,-4.39610176039955
1626177390287.05,-4.38658170540115
1626177390290.37,-4.39631812528588
1626177390293.7,-4.39292840873342
1626177390297.03,-4.40021269323977
1626177390300.35,-4.39018778683994
1626177390303.68,-4.38694231354503
1626177390307.01,-4.39343326013485
1626177390310.33,-4.38852898937809
1626177390313.66,-4.39054839498382
1626177390316.99,-4.40208785558794
1626177390320.31,-4.38189379953072
1626177390323.64,-4.39307265199097
1626177390326.97,-4.38189379953072
1626177390330.29,-4.38268713744725
1626177390333.62,-4.37453739339559
1626177390336.94,-4.3888174758932
1626177390340.27,-4.38398532676522
1626177390343.6,-4.37785498831928
1626177390346.92,-4.37980227229622
1626177390350.25,-4.37085919032802
1626177390353.58,-4.37453739339559
1626177390356.9,-4.36768583866189
1626177390360.23,-4.38896171915075
1626177390363.56,-4.3825428941897
1626177390366.88,-4.37280647430497
1626177390370.21,-4.36977736589639
1626177390373.54,-4.375691339456
1626177390376.86,-4.36992160915394
1626177390380.19,-4.39343326013485
1626177390383.51,-4.38694231354503
1626177390386.84,-4.37879256949336
1626177390390.17,-4.35766093226206
1626177390393.49,-4.36234883813248
1626177390396.82,-4.34763602586222
1626177390400.15,-4.35600213480021
1626177390403.47,-4.3685512982072
1626177390406.8,-4.32960561866827
1626177390410.13,-4.32542256419928
1626177390413.45,-4.33631293014442
1626177390416.78,-4.29094842564445
1626177390420.1,-4.29311207450772
1626177390423.43,-4.2776780459497
1626177390426.76,-4.22567835160236
1626177390430.08,-4.21925952664131
1626177390433.41,-4.22026922944417
1626177390436.74,-4.25092092167388
1626177390440.06,-4.25257971913573
1626177390443.39,-4.24572816440203
1626177390446.72,-4.26498463928516
1626177390450.04,-4.26693192326211
1626177390453.37,-4.27428832939724
1626177390456.7,-4.30082908878673
1626177390460.02,-4.32491771279785
1626177390463.35,-4.36761371703311
1626177390466.67,-4.35809366203471
1626177390470,-4.36177186510228
1626177390473.33,-4.35657910783042
1626177390476.65,-4.37518648805457
1626177390479.98,-4.37323920407763
1626177390483.31,-4.37367193385028
1626177390486.63,-4.37619619085743
1626177390489.96,-4.37497012316824
1626177390493.29,-4.3870144351738
1626177390496.61,-4.40850668054899
1626177390499.94,-4.39689509831609
1626177390503.27,-4.4069921263447
1626177390506.59,-4.40367453142101
1626177390509.92,-4.39437084130893
1626177390513.24,-4.39523630085424
1626177390516.57,-4.40273695024692
1626177390519.9,-4.39927511206569
1626177390523.22,-4.40865092380654
1626177390526.55,-4.40244846373182
1626177390529.88,-4.39141385452913
1626177390533.2,-4.40886728869287
1626177390536.53,-4.42906134475009
1626177390539.86,-4.4168006678582
1626177390543.18,-4.400140571611
1626177390546.51,-4.43540804808236
1626177390549.84,-4.46555488891064
1626177390553.16,-4.54020077469358
1626177390556.49,-4.67124577417919
1626177390559.81,-4.70507081807504
1626177390563.14,-4.74120375409171
1626177390566.47,-4.64932079903135
1626177390569.79,-4.57402581858943
1626177390573.12,-4.33826021412137
1626177390576.45,-3.85641561227031
1626177390579.77,-3.53064221509006
1626177390583.1,-2.79168400665331
1626177390586.43,-2.42775826785067
1626177390589.75,-2.42220490243493
1626177390593.08,-2.5259879262433
1626177390596.41,-2.97350263279708
1626177390599.73,-3.20126273647103
1626177390603.06,-3.67214485074816
1626177390606.38,-4.1159092326056
1626177390609.71,-4.25409427334002
1626177390613.04,-4.33357230825094
1626177390616.36,-4.27154770750376
1626177390619.69,-4.26310947693699
1626177390623.02,-4.25733974663493
1626177390626.34,-4.27457681591234
1626177390629.67,-4.27897623526767
1626177390633,-4.28907326329628
1626177390636.32,-4.31337825219372
1626177390639.65,-4.31063763030024
1626177390642.97,-4.31705645526128
1626177390646.3,-4.32881228075174
1626177390649.63,-4.33753899783361
1626177390652.95,-4.35203544521754
1626177390656.28,-4.3500881612406
1626177390659.61,-4.34756390423344
1626177390662.93,-4.33890930878035
1626177390666.26,-4.35528091851245
1626177390669.59,-4.35196332358877
1626177390672.91,-4.34871785029386
1626177390676.24,-4.35809366203471
1626177390679.57,-4.35412697245204
1626177390682.89,-4.36292581116269
1626177390686.22,-4.35354999942184
1626177390689.54,-4.35773305389083
1626177390692.87,-4.32664863188847
1626177390696.2,-4.34489540396874
1626177390699.52,-4.33948628181056
1626177390702.85,-4.34626571491548
1626177390706.18,-4.33710626806096
1626177390709.5,-4.33544747059911
1626177390712.83,-4.34338084976445
1626177390716.16,-4.33263472707686
1626177390719.48,-4.3164073606023
1626177390722.81,-4.31006065727003
1626177390726.14,-4.31352249545127
1626177390729.46,-4.31251279264841
1626177390732.79,-4.31316188730739
1626177390736.11,-4.31121460333045
1626177390739.44,-4.31756130666272
1626177390742.77,-4.30191091321837
1626177390746.09,-4.29599693965875
1626177390749.42,-4.28380838439565
1626177390752.75,-4.29065993912935
1626177390756.07,-4.30991641401248
1626177390759.4,-4.26303735530822
1626177390762.73,-4.25488761125655
1626177390766.05,-4.26700404489089
1626177390769.38,-4.27284589682173
1626177390772.71,-4.226760176034
1626177390776.03,-4.2204855943305
1626177390779.36,-4.20368125482574
1626177390782.68,-4.20476307925738
1626177390786.01,-4.19394483494101
1626177390789.34,-4.17101015699031
1626177390792.66,-4.1454069787749
1626177390795.99,-4.1474985060094
1626177390799.32,-4.13913239707141
1626177390802.64,-4.10840858321292
1626177390805.97,-4.09665275772247
1626177390809.3,-4.08684421620896
1626177390812.62,-4.08511329711834
1626177390815.95,-4.07083321462073
1626177390819.27,-4.05200946951025
1626177390822.6,-4.04559064454921
1626177390825.93,-4.03671968420979
1626177390829.25,-4.03188753508181
1626177390832.58,-4.0196989798187
1626177390835.91,-4.00448131614701
1626177390839.23,-4.01717472281155
1626177390842.56,-4.01955473656115
1626177390845.89,-4.02337718288627
1626177390849.21,-4.03022873761997
1626177390852.54,-4.05388463185842
1626177390855.87,-4.06888593064379
1626177390859.19,-4.08648360806508
1626177390862.52,-4.12175108453644
1626177390865.84,-4.16098525059047
1626177390869.17,-4.16927923789969
1626177390872.5,-4.19906547058409
1626177390875.82,-4.21738436429314
1626177390879.15,-4.25106516493144
1626177390882.48,-4.26909557212538
1626177390885.8,-4.2815726139036
1626177390889.13,-4.30227152136225
1626177390892.46,-4.29441026382569
1626177390895.78,-4.31294552242106
1626177390899.11,-4.33768324109116
1626177390902.44,-4.3640797572231
1626177390905.76,-4.36523370328351
1626177390909.09,-4.37605194759988
1626177390912.41,-4.37670104225886
1626177390915.74,-4.3980490443765
1626177390919.07,-4.39732782808874
1626177390922.39,-4.40136663930018
1626177390925.72,-4.40244846373182
1626177390929.05,-4.40807395077633
1626177390932.37,-4.40634303168571
1626177390935.7,-4.42112796558475
1626177390939.03,-4.43410985876439
1626177390942.35,-4.41326670804819
1626177390945.68,-4.42141645209985
1626177390949.01,-4.43115287198459
1626177390952.33,-4.41694491111576
1626177390955.66,-4.41463701899493
1626177390958.98,-4.43807654834706
1626177390962.31,-4.43035953406805
1626177390965.64,-4.4343983452795
1626177390968.96,-4.42761891217457
1626177390972.29,-4.42300312793292
1626177390975.62,-4.45682817182877
1626177390978.94,-4.40922789683675
1626177390982.27,-4.41607945157045
1626177390985.6,-4.42170493861496
1626177390988.92,-4.4049005991102
1626177390992.25,-4.42321949281925
1626177390995.57,-4.41449277573738
1626177390998.9,-4.42055099255454
1626177391002.23,-4.41463701899493
1626177391005.55,-4.42819588520478
1626177391008.88,-4.41759400577474
1626177391012.21,-4.41362731619207
1626177391015.53,-4.40944426172307
1626177391018.86,-4.41088669429859
1626177391022.19,-4.41701703274453
1626177391025.51,-4.42091160069842
1626177391028.84,-4.41838734369127
1626177391032.17,-4.42805164194723
1626177391035.49,-4.40908365357919
1626177391038.82,-4.41312246479064
1626177391042.14,-4.42444556050844
1626177391045.47,-4.42026250603944
1626177391048.8,-4.42235403327394
1626177391052.12,-4.40403513956489
1626177391055.45,-4.40706424797347
1626177391058.78,-4.40381877467856
1626177391062.1,-4.41002123475328
1626177391065.43,-4.41773824903229
1626177391068.76,-4.40749697774613
1626177391072.08,-4.41283397827554
1626177391075.41,-4.40655939657204
1626177391078.74,-4.39285628710464
1626177391082.06,-4.39934723369446
1626177391085.39,-4.40158300418651
1626177391088.71,-4.4030975583908
1626177391092.04,-4.40540545051163
1626177391095.37,-4.39480357108159
1626177391098.69,-4.40475635585265
1626177391102.02,-4.40886728869287
1626177391105.35,-4.39631812528588
1626177391108.67,-4.41867583020637
1626177391112,-4.40540545051163
1626177391115.33,-4.41478126225248
1626177391118.65,-4.42264251978904
1626177391121.98,-4.42711406077314
1626177391125.31,-4.41038184289716
1626177391128.63,-4.41218488361655
1626177391131.96,-4.40259270698937
1626177391135.28,-4.41059820778349
1626177391138.61,-4.41398792433595
1626177391141.94,-4.42134433047108
1626177391145.26,-4.42653708774294
1626177391148.59,-4.42761891217457
1626177391151.92,-4.42689769588681
1626177391155.24,-4.42704193914437
1626177391158.57,-4.42495041190987
1626177391161.9,-4.4230752495617
1626177391165.22,-4.42761891217457
1626177391168.55,-4.44175475141463
1626177391171.88,-4.43346076410541
1626177391175.2,-4.43447046690827
1626177391178.53,-4.4260322363415
1626177391181.85,-4.42437343887966
1626177391185.18,-4.44189899467218
1626177391188.51,-4.4501929819814
1626177391191.83,-4.44579356262607
1626177391195.16,-4.46699732148615
1626177391198.49,-4.43923049440747
1626177391201.81,-4.43511956156725
1626177391205.14,-4.43273954781765
1626177391208.47,-4.43713896717298
1626177391211.79,-4.43396561550684
1626177391215.12,-4.44262021095994
1626177391218.44,-4.43014316918172
1626177391221.77,-4.44319718399014
1626177391225.1,-4.43865352137727
1626177391228.42,-4.42870073660621
1626177391231.75,-4.43035953406805
1626177391235.08,-4.43483107505215
1626177391238.4,-4.43987958906646
1626177391241.73,-4.42797952031845
1626177391245.06,-4.44326930561892
1626177391248.38,-4.43540804808236
1626177391251.71,-4.43526380482481
1626177391255.04,-4.4457214409973
1626177391258.36,-4.44528871122464
1626177391261.69,-4.44644265728505
1626177391265.01,-4.43721108880175
1626177391268.34,-4.44045656209666
1626177391271.67,-4.42531102005375
1626177391274.99,-4.41247337013166
1626177391278.32,-4.39992420672467
1626177391281.65,-4.39689509831609
1626177391284.97,-4.39451508456648
1626177391288.3,-4.40064542301243
1626177391291.63,-4.37280647430497
1626177391294.95,-4.35419909408082
1626177391298.28,-4.35189120195999
1626177391301.61,-4.30234364299102
1626177391304.93,-4.27161982913254
1626177391308.26,-4.27717319454827
1626177391311.58,-4.29787210200692
1626177391314.91,-4.29491511522712
1626177391318.24,-4.30191091321837
1626177391321.56,-4.34013537646954
1626177391324.89,-4.34842936377875
1626177391328.22,-4.34316448487812
1626177391331.54,-4.3730228391913
1626177391334.87,-4.4025205853606
1626177391338.2,-4.40850668054899
1626177391341.52,-4.44305294073259
1626177391344.85,-4.44961600895119
1626177391348.18,-4.44262021095994
1626177391351.5,-4.41045396452593
1626177391354.83,-4.43108075035581
1626177391358.15,-4.4260322363415
1626177391361.48,-4.45596271228346
1626177391364.81,-4.44269233258871
1626177391368.13,-4.44456749493688
1626177391371.46,-4.45235663084467
1626177391374.79,-4.45430391482162
1626177391378.11,-4.45978515860858
1626177391381.44,-4.464473064479
1626177391384.77,-4.45639544205611
1626177391388.09,-4.45617907716979
1626177391391.42,-4.45870333417694
1626177391394.74,-4.46382396982002
1626177391398.07,-4.47146886247025
1626177391401.4,-4.46743005125881
1626177391404.72,-4.47175734898536
1626177391408.05,-4.46115546955532
1626177391411.38,-4.4731276599321
1626177391414.7,-4.46663671334228
1626177391418.03,-4.4734161464472
1626177391421.36,-4.48070043095355
1626177391424.68,-4.54755718082871
1626177391428.01,-4.59292168532868
1626177391431.34,-4.71870180591366
1626177391434.66,-4.80027136805908
1626177391437.99,-4.80048773294541
1626177391441.31,-4.69425257375867
1626177391444.64,-4.52527159753699
1626177391447.97,-4.38860111100687
1626177391451.29,-3.90632377938316
1626177391454.62,-3.22737076608786
1626177391457.95,-2.89640461163576
1626177391461.27,-2.53017098071229
1626177391464.6,-2.51747757404775
1626177391467.93,-2.64405103254927
1626177391471.25,-3.07750202149177
1626177391474.58,-3.52004033566002
1626177391477.91,-3.78414974023697
1626177391481.23,-4.24738696186387
1626177391484.56,-4.42285888467537
1626177391487.88,-4.43490319668093
1626177391491.21,-4.35607425642899
1626177391494.54,-4.33761111946239
1626177391497.86,-4.33624080851565
1626177391501.19,-4.34475116071119
1626177391504.52,-4.36400763559432
1626177391507.84,-4.36862341983598
1626177391511.17,-4.36112277044329
1626177391514.5,-4.37374405547906
1626177391517.82,-4.37388829873661
1626177391521.15,-4.39927511206569
1626177391524.48,-4.4028090718757
1626177391527.8,-4.38715867843135
1626177391531.13,-4.38982717869606
1626177391534.45,-4.38773565146156
1626177391537.78,-4.3780713532056
1626177391541.11,-4.38593261074217
1626177391544.43,-4.39501993596792
1626177391547.76,-4.3938659899075
1626177391551.09,-4.38384108350767
1626177391554.41,-4.37468163665314
1626177391557.74,-4.38239865093215
1626177391561.07,-4.39163021941545
1626177391564.39,-4.37605194759988
1626177391567.72,-4.3688397847223
1626177391571.04,-4.35946397298145
1626177391574.37,-4.36501733839719
1626177391577.7,-4.35593001317144
1626177391581.02,-4.35369424267939
1626177391584.35,-4.35116998567223
1626177391587.68,-4.33407715965237
1626177391591,-4.33501474082646
1626177391594.33,-4.34648207980181
1626177391597.66,-4.327441969805
1626177391600.98,-4.31417159011025
1626177391604.31,-4.31258491427719
1626177391607.64,-4.31784979317782
1626177391610.96,-4.29570845314365
1626177391614.29,-4.28178897878992
1626177391617.61,-4.27061012632968
1626177391620.94,-4.25705126011983
1626177391624.27,-4.26029673341474
1626177391627.59,-4.25604155731697
1626177391630.92,-4.24378088042508
1626177391634.25,-4.25986400364208
1626177391637.57,-4.22776987883686
1626177391640.9,-4.23043837910156
1626177391644.23,-4.21276858005149
1626177391647.55,-4.19214179422162
1626177391650.88,-4.20353701156819
1626177391654.21,-4.1954593891453
1626177391657.53,-4.18312659062464
1626177391660.86,-4.14439727597204
1626177391664.18,-4.13206447745138
1626177391667.51,-4.12160684127889
1626177391670.84,-4.10458613688781
1626177391674.16,-4.10148490685045
1626177391677.49,-4.07501626908973
1626177391680.82,-4.06960714693155
1626177391684.14,-4.05417311837353
1626177391687.47,-4.04926884761677
1626177391690.8,-4.05136037485127
1626177391694.12,-4.03708029235367
1626177391697.45,-3.99777400467086
1626177391700.78,-4.00577950546497
1626177391704.1,-3.9881097064149
1626177391707.43,-4.0059958703513
1626177391710.75,-3.97159385342525
1626177391714.08,-3.97274779948566
1626177391717.41,-3.97628175929567
1626177391720.73,-3.98551332777897
1626177391724.06,-3.98536908452142
1626177391727.39,-4.0173189660691
1626177391730.71,-4.04508579314778
1626177391734.04,-4.05294705068434
1626177391737.37,-4.07876659378607
1626177391740.69,-4.11497165143152
1626177391744.02,-4.13985361335917
1626177391747.34,-4.18529023948792
1626177391750.67,-4.20137336270492
1626177391754,-4.20822491743862
1626177391757.32,-4.24161723156181
1626177391760.65,-4.26859072072395
1626177391763.98,-4.26678768000456
1626177391767.3,-4.28849629026607
1626177391770.63,-4.30631033257369
1626177391773.96,-4.31554190105699
1626177391777.28,-4.34741966097589
1626177391780.61,-4.34222690370404
1626177391783.94,-4.33912567366668
1626177391787.26,-4.35052089101325
1626177391790.59,-4.35138635055856
1626177391793.91,-4.35405485082327
1626177391797.24,-4.36162762184472
1626177391800.57,-4.36920039286618
1626177391803.89,-4.36133913532962
1626177391807.22,-4.37929742089479
1626177391810.55,-4.37367193385028
1626177391813.87,-4.39696721994486
1626177391817.2,-4.38953869218096
1626177391820.53,-4.39054839498382
1626177391823.85,-4.39054839498382
1626177391827.18,-4.39826540926283
1626177391830.51,-4.40396301793611
1626177391833.83,-4.3825428941897
1626177391837.16,-4.38759140820401
1626177391840.48,-4.3843459349091
1626177391843.81,-4.38189379953072
1626177391847.14,-4.38708655680258
1626177391850.46,-4.38961081380973
1626177391853.79,-4.39848177414915
1626177391857.12,-4.37742225854662
1626177391860.44,-4.38355259699256
1626177391863.77,-4.37612406922866
1626177391867.1,-4.37735013691785
1626177391870.42,-4.37561921782723
1626177391873.75,-4.3709313119568
1626177391877.08,-4.37857620460703
1626177391880.4,-4.3688397847223
1626177391883.73,-4.36768583866189
1626177391887.05,-4.35412697245204
1626177391890.38,-4.35823790529226
1626177391893.71,-4.36321429767779
1626177391897.03,-4.36400763559432
1626177391900.36,-4.36508946002596
1626177391903.69,-4.36573855468494
1626177391907.01,-4.35737244574695
1626177391910.34,-4.36133913532962
1626177391913.67,-4.36343066256412
1626177391916.99,-4.36963312263884
1626177391920.32,-4.36516158165474
1626177391923.65,-4.35282878313408
1626177391926.97,-4.37432102850926
1626177391930.3,-4.36775796029067
1626177391933.62,-4.34720329608957
1626177391936.95,-4.36184398673105
1626177391940.28,-4.35643486457287
1626177391943.6,-4.35593001317144
1626177391946.93,-4.35225181010387
1626177391950.26,-4.36638764934393
1626177391953.58,-4.36364702745045
1626177391956.91,-4.35391060756571
1626177391960.24,-4.36097852718574
1626177391963.56,-4.3619882299886
1626177391966.89,-4.36609916282882
1626177391970.21,-4.36862341983598
1626177391973.54,-4.36451248699576
1626177391976.87,-4.35448758059592
1626177391980.19,-4.35809366203471
1626177391983.52,-4.36307005442024
1626177391986.85,-4.37388829873661
1626177391990.17,-4.36602704120005
1626177391993.5,-4.3685512982072
1626177391996.83,-4.38542775934074
1626177392000.15,-4.41052608615471
1626177392003.48,-4.38059561021276
1626177392006.81,-4.3712197984719
1626177392010.13,-4.3616997434735
1626177392013.46,-4.35939185135267
1626177392016.78,-4.36761371703311
1626177392020.11,-4.37590770434233
1626177392023.44,-4.37814347483438
1626177392026.76,-4.36328641930657
1626177392030.09,-4.37186889313089
1626177392033.42,-4.37684528551642
1626177392036.74,-4.37057070381292
1626177392040.07,-4.38275925907603
1626177392043.4,-4.37338344733518
1626177392046.72,-4.37049858218415
1626177392050.05,-4.37136404172946
1626177392053.38,-4.38030712369765
1626177392056.7,-4.36343066256412
1626177392060.03,-4.3825428941897
1626177392063.35,-4.38009075881133
1626177392066.68,-4.38110046161419
1626177392070.01,-4.38961081380973
1626177392073.33,-4.39732782808874
1626177392076.66,-4.37497012316824
1626177392079.99,-4.39444296293771
1626177392083.31,-4.37893681275091
1626177392086.64,-4.37172464987333
1626177392089.97,-4.37915317763724
1626177392093.29,-4.38802413797666
1626177392096.62,-4.39639024691466
1626177392099.95,-4.38110046161419
1626177392103.27,-4.38961081380973
1626177392106.6,-4.3843459349091
1626177392109.92,-4.3751143664258
1626177392113.25,-4.38773565146156
1626177392116.58,-4.38110046161419
1626177392119.9,-4.3822544076746
1626177392123.23,-4.36984948752516
1626177392126.56,-4.375691339456
1626177392129.88,-4.38441805653787
1626177392133.21,-4.39898662555058
1626177392136.54,-4.39163021941545
1626177392139.86,-4.37843196134948
1626177392143.19,-4.39170234104423
1626177392146.51,-4.39184658430178
1626177392149.84,-4.39667873342976
1626177392153.17,-4.40641515331449
1626177392156.49,-4.38275925907603
1626177392159.82,-4.38153319138684
1626177392163.15,-4.36083428392819
1626177392166.47,-4.35802154040593
1626177392169.8,-4.37612406922866
1626177392173.13,-4.37641255574376
1626177392176.45,-4.3706428254417
1626177392179.78,-4.35867063506492
1626177392183.11,-4.35506455362613
1626177392186.43,-4.34201053881771
1626177392189.76,-4.31676796874618
1626177392193.08,-4.30573335954349
1626177392196.41,-4.29022720935669
1626177392199.74,-4.24897363769694
1626177392203.06,-4.22171166201969
1626177392206.39,-4.23289051447994
1626177392209.72,-4.24435785345529
1626177392213.04,-4.27782228920726
1626177392216.37,-4.27955320829787
1626177392219.7,-4.29736725060549
1626177392223.02,-4.3045072918543
1626177392226.35,-4.31143096821677
1626177392229.68,-4.28287080322156
1626177392233,-4.36097852718574
1626177392236.33,-4.39191870593056
1626177392239.65,-4.39083688149892
1626177392242.98,-4.39321689524852
1626177392246.31,-4.39213507081688
1626177392249.63,-4.39877026066426
1626177392252.96,-4.40410726119366
1626177392256.29,-4.40468423422387
1626177392259.61,-4.40958850498062
1626177392262.94,-4.42278676304659
1626177392266.27,-4.43093650709826
1626177392269.59,-4.42495041190987
1626177392272.92,-4.43612926437012
1626177392276.25,-4.44355779213402
1626177392279.57,-4.45329421201875
1626177392282.9,-4.44788508986057
1626177392286.22,-4.43648987251399
1626177392289.55,-4.452572995731
1626177392292.88,-4.45718877997265
1626177392296.2,-4.44312506236137
1626177392299.53,-4.45581846902591
1626177392302.86,-4.44896691429221
1626177392306.18,-4.43555229133991
1626177392309.51,-4.468656118948
1626177392312.84,-4.46937733523576
1626177392316.16,-4.46944945686453
1626177392319.49,-4.47110825432637
1626177392322.81,-4.53450316602029
1626177392326.14,-4.58469981964824
1626177392329.47,-4.69381984398602
1626177392332.79,-4.73543402378965
1626177392336.12,-4.8082768688532
1626177392339.45,-4.73226067212351
1626177392342.77,-4.66410573293039
1626177392346.1,-4.43540804808236
1626177392349.43,-4.00000977516291
1626177392352.75,-3.69053586608599
1626177392356.08,-2.93700908863653
1626177392359.41,-2.44564443178707
1626177392362.73,-2.42422430804066
1626177392366.06,-2.50038474802789
1626177392369.38,-2.93657635886387
1626177392372.71,-3.18034746412605
1626177392376.04,-3.66349025529507
1626177392379.36,-4.09629214957859
1626177392382.69,-4.25640216546084
1626177392386.02,-4.37042646055537
1626177392389.34,-4.31042126541391
1626177392392.67,-4.29296783125017
1626177392396,-4.29873756155223
1626177392399.32,-4.33465413268258
1626177392402.65,-4.33999113321199
1626177392405.98,-4.33523110571278
1626177392409.3,-4.33515898408401
1626177392412.63,-4.3456166202565
1626177392415.95,-4.37900893437969
1626177392419.28,-4.37771074506172
1626177392422.61,-4.36732523051801
1626177392425.93,-4.39206294918811
1626177392429.26,-4.39336113850607
1626177392432.59,-4.39884238229303
1626177392435.91,-4.39465932782404
1626177392439.24,-4.39992420672467
1626177392442.57,-4.39682297668731
1626177392445.89,-4.37879256949336
1626177392449.22,-4.37374405547906
1626177392452.55,-4.3688397847223
1626177392455.87,-4.39343326013485
1626177392459.2,-4.37973015066745
1626177392462.52,-4.38203804278827
1626177392465.85,-4.38925020566585
1626177392469.18,-4.39797692274772
1626177392472.5,-4.3893944489234
1626177392475.83,-4.34056810624219
1626177392479.16,-4.3500881612406
1626177392482.48,-4.36184398673105
1626177392485.81,-4.35333363453551
1626177392489.14,-4.35376636430816
1626177392492.46,-4.34907845843774
1626177392495.79,-4.33068744309991
1626177392499.11,-4.33811597086382
1626177392502.44,-4.33025471332726
1626177392505.77,-4.34273175510547
1626177392509.09,-4.33588020037177
1626177392512.42,-4.34265963347669
1626177392515.75,-4.3092673193535
1626177392519.07,-4.31258491427719
1626177392522.4,-4.31229642776208
1626177392525.73,-4.29787210200692
1626177392529.05,-4.28207746530503
1626177392532.38,-4.27176407239009
1626177392535.71,-4.26484039602761
1626177392539.03,-4.26303735530822
1626177392542.36,-4.25827732780902
1626177392545.68,-4.25366154356736
1626177392549.01,-4.22827473023829
1626177392552.34,-4.20296003853798
1626177392555.66,-4.20490732251493
1626177392558.99,-4.19452180797122
1626177392562.32,-4.19625272706184
1626177392565.64,-4.15651370960637
1626177392568.97,-4.13567055889017
1626177392572.3,-4.12499655783135
1626177392575.62,-4.1066776641223
1626177392578.95,-4.10343219082739
1626177392582.28,-4.09585941980593
1626177392585.6,-4.07992053984649
1626177392588.93,-4.07263625534013
1626177392592.25,-4.04061425216368
1626177392595.58,-4.02856994015812
1626177392598.91,-4.01840079050074
1626177392602.23,-4.01962685818992
1626177392605.56,-4.0018128158823
1626177392608.89,-4.00022614004924
1626177392612.21,-4.00606799198007
1626177392615.54,-4.00772678944192
1626177392618.87,-4.01176560065336
1626177392622.19,-4.02049231773523
1626177392625.52,-4.03419542720263
1626177392628.85,-4.03729665723999
1626177392632.17,-4.07393444465809
1626177392635.5,-4.1108607185913
1626177392638.82,-4.13624753192038
1626177392642.15,-4.16718771066519
1626177392645.48,-4.18846359115405
1626177392648.8,-4.20519580903003
1626177392652.13,-4.24882939443939
1626177392655.46,-4.27277377519295
1626177392658.78,-4.29635754780263
1626177392662.11,-4.30869034632329
1626177392665.44,-4.30537275139961
1626177392668.76,-4.31359461708005
1626177392672.09,-4.34994391798305
1626177392675.42,-4.34417418768098
1626177392678.74,-4.3640797572231
1626177392682.07,-4.36833493332087
1626177392685.39,-4.38636534051482
1626177392688.72,-4.3986260174067
1626177392692.05,-4.37720589366029
1626177392695.37,-4.38297562396236
1626177392698.7,-4.38708655680258
1626177392702.03,-4.40605454517061
1626177392705.35,-4.41925280323658
1626177392708.68,-4.41752188414596
1626177392712.01,-4.40057330138365
1626177392715.33,-4.4099491131245
1626177392718.66,-4.4123291268741
1626177392721.98,-4.40619878842816
1626177392725.31,-4.41550247854024
1626177392728.64,-4.41290609990431
1626177392731.96,-4.42797952031845
1626177392735.29,-4.41290609990431
1626177392738.62,-4.41701703274453
1626177392741.94,-4.40857880217776
1626177392745.27,-4.41268973501798
1626177392748.6,-4.42552738494007
1626177392751.92,-4.40742485611735
1626177392755.25,-4.42285888467537
1626177392758.58,-4.42696981751559
1626177392761.9,-4.4188921950927
1626177392765.23,-4.42257039816027
1626177392768.55,-4.42466192539476
1626177392771.88,-4.42372434422068
1626177392775.21,-4.42877285823498
1626177392778.53,-4.42372434422068
1626177392781.86,-4.42660920937171
1626177392785.19,-4.44146626489952
1626177392788.51,-4.43144135849969
1626177392791.84,-4.44024019721034
1626177392795.17,-4.4168006678582
1626177392798.49,-4.41687278948698
1626177392801.82,-4.4460099275124
1626177392805.15,-4.43346076410541
1626177392808.47,-4.41254549176043
1626177392811.8,-4.43778806183196
1626177392815.12,-4.43757169694563
1626177392818.45,-4.43771594020318
1626177392821.78,-4.45192390107201
1626177392825.1,-4.43879776463482
1626177392828.43,-4.42999892592417
1626177392831.76,-4.43923049440747
1626177392835.08,-4.43504743993848
1626177392838.41,-4.43483107505215
1626177392841.74,-4.4346868317946
1626177392845.06,-4.44052868372544
1626177392848.39,-4.4388698862636
1626177392851.72,-4.44240384607361
1626177392855.04,-4.44319718399014
1626177392858.37,-4.4302152908105
1626177392861.69,-4.4481014547469
1626177392865.02,-4.4549530094806
1626177392868.35,-4.45509725273815
1626177392871.67,-4.44536083285342
1626177392875,-4.44045656209666
1626177392878.33,-4.4668530782286
1626177392881.65,-4.4716131057278
1626177392884.98,-4.46728580800126
1626177392888.31,-4.43829291323339
1626177392891.63,-4.45221238758712
1626177392894.96,-4.44716387357281
1626177392898.28,-4.45661180694244
1626177392901.61,-4.45351057690508
1626177392904.94,-4.45329421201875
1626177392908.26,-4.44752448171669
1626177392911.59,-4.45509725273815
1626177392914.92,-4.45307784713243
1626177392918.24,-4.47211795712924
1626177392921.57,-4.45646756368489
1626177392924.9,-4.47291129504577
1626177392928.22,-4.46202092910062
1626177392931.55,-4.4618045642143
1626177392934.88,-4.46807914591779
1626177392938.2,-4.45596271228346
1626177392941.53,-4.45653968531366
1626177392944.85,-4.46065061815388
1626177392948.18,-4.48163801212764
1626177392951.51,-4.49764901371586
1626177392954.83,-4.48394590424846
1626177392958.16,-4.48033982280968
1626177392961.49,-4.4734161464472
1626177392964.81,-4.47529130879537
1626177392968.14,-4.46930521360698
1626177392971.47,-4.46548276728186
1626177392974.79,-4.47053128129617
1626177392978.12,-4.46908884872065
1626177392981.45,-4.47666161974211
1626177392984.77,-4.48538833682398
1626177392988.1,-4.48156589049886
1626177392991.42,-4.49599021625402
1626177392994.75,-4.48567682333908
1626177392998.08,-4.48372953936214
1626177393001.4,-4.4781761739464
1626177393004.73,-4.47687798462844
1626177393008.06,-4.46966582175086
1626177393011.38,-4.48964351292175
1626177393014.71,-4.48935502640665
1626177393018.04,-4.48964351292175
1626177393021.36,-4.50666421731284
1626177393024.69,-4.49851447326117
1626177393028.02,-4.49346595924687
1626177393031.34,-4.48755198568725
1626177393034.67,-4.47673374137089
1626177393037.99,-4.4781761739464
1626177393041.32,-4.47781556580252
1626177393044.65,-4.47557979531047
1626177393047.97,-4.48899441826277
1626177393051.3,-4.50248116284384
1626177393054.63,-4.48928290477787
1626177393057.95,-4.48913866152032
1626177393061.28,-4.49296110784544
1626177393064.61,-4.48870593174767
1626177393067.93,-4.49764901371586
1626177393071.26,-4.49995690583669
1626177393074.58,-4.48971563455053
1626177393077.91,-4.48647016125562
1626177393081.24,-4.4897877561793
1626177393084.56,-4.48430651239234
1626177393087.89,-4.48957139129298
1626177393091.22,-4.49332171598932
1626177393094.54,-4.49260049970156
1626177393097.87,-4.50161570329853
1626177393101.2,-4.47182947061413
1626177393104.52,-4.45322209038998
1626177393107.85,-4.43937473766503
1626177393111.18,-4.43865352137727
1626177393114.5,-4.41600732994167
1626177393117.83,-4.40742485611735
1626177393121.15,-4.3619882299886
1626177393124.48,-4.33443776779625
1626177393127.81,-4.35016028286937
1626177393131.13,-4.37222950127476
1626177393134.46,-4.38369684025012
1626177393137.79,-4.39083688149892
1626177393141.11,-4.39343326013485
1626177393144.44,-4.39465932782404
1626177393147.77,-4.40273695024692
1626177393151.09,-4.40562181539796
1626177393154.42,-4.45992940186613
1626177393157.75,-4.49389868901952
1626177393161.07,-4.49526899996626
1626177393164.4,-4.51358789367532
1626177393167.72,-4.50327450076038
1626177393171.05,-4.52959889526354
1626177393174.38,-4.51164060969837
1626177393177.7,-4.51921338071983
1626177393181.03,-4.51503032625083
1626177393184.36,-4.53334921995988
1626177393187.68,-4.52707463825639
1626177393191.01,-4.53334921995988
1626177393194.34,-4.54056138283746
1626177393197.66,-4.54892749177545
1626177393200.99,-4.54705232942728
1626177393204.32,-4.56616456105287
1626177393207.64,-4.55051416760852
1626177393210.97,-4.5553463167365
1626177393214.29,-4.56378454730326
1626177393217.62,-4.5583033035163
1626177393220.95,-4.56255847961408
1626177393224.27,-4.56623668268164
1626177393227.6,-4.55282205972934
1626177393230.93,-4.56306333101551
1626177393234.25,-4.56616456105287
1626177393237.58,-4.55419237067608
1626177393240.91,-4.54741293757116
1626177393244.23,-4.61484666047653
1626177393247.56,-4.70406111527218
1626177393250.89,-4.7608929587475
1626177393254.21,-4.84217403437782
1626177393257.54,-4.89020703914249
1626177393260.86,-4.86871479376731
1626177393264.19,-4.75461837704401
1626177393267.52,-4.54625899151075
1626177393270.84,-4.34994391798305
1626177393274.17,-3.76734540073221
1626177393277.5,-3.01374650165397
1626177393280.82,-2.71826418855955
1626177393284.15,-2.56248147040385
1626177393287.48,-2.6263812334992
1626177393290.8,-2.82882664547284
1626177393294.13,-3.3038196925902
1626177393297.45,-3.78184184811614
1626177393300.78,-4.02005958796258
1626177393304.11,-4.3754028529409
1626177393307.43,-4.49180716178503
1626177393310.76,-4.46519428076676
1626177393314.09,-4.43172984501479
1626177393317.41,-4.42913346637886
1626177393320.74,-4.42675345262926
1626177393324.07,-4.4555299825108
1626177393327.39,-4.45653968531366
1626177393330.72,-4.47298341667454
1626177393334.05,-4.49245625644401
1626177393337.37,-4.50255328447262
1626177393340.7,-4.49418717553463
1626177393344.02,-4.51257819087245
1626177393347.35,-4.51863640768962
1626177393350.68,-4.51164060969837
1626177393354,-4.51351577204654
1626177393357.33,-4.52253097564351
1626177393360.66,-4.52548796242332
1626177393363.98,-4.532988611816
1626177393367.31,-4.52180975935576
1626177393370.64,-4.51798731303064
1626177393373.96,-4.52995950340742
1626177393377.29,-4.5163285155688
1626177393380.62,-4.52087217818167
1626177393383.94,-4.52007884026514
1626177393387.27,-4.52015096189391
1626177393390.59,-4.53522438230805
1626177393393.92,-4.50248116284384
1626177393397.25,-4.49923568954893
1626177393400.57,-4.49577385136769
1626177393403.9,-4.49923568954893
1626177393407.23,-4.49656718928423
1626177393410.55,-4.50551027125243
1626177393413.88,-4.51012605549408
1626177393417.21,-4.50442844682079
1626177393420.53,-4.4897877561793
1626177393423.86,-4.4799792146658
1626177393427.19,-4.49937993280648
1626177393430.51,-4.47305553830332
1626177393433.84,-4.46468942936533
1626177393437.16,-4.46642034845595
1626177393440.49,-4.46072273978266
1626177393443.82,-4.44997661709507
1626177393447.14,-4.45956879372225
1626177393450.47,-4.4460099275124
1626177393453.8,-4.42834012846233
1626177393457.12,-4.42913346637886
1626177393460.45,-4.41463701899493
1626177393463.78,-4.43057589895438
1626177393467.1,-4.42495041190987
1626177393470.43,-4.38932232729463
1626177393473.75,-4.37922529926602
1626177393477.08,-4.37460951502437
1626177393480.41,-4.35845427017859
1626177393483.73,-4.33414928128115
1626177393487.06,-4.35412697245204
1626177393490.39,-4.30256000787735
1626177393493.71,-4.28683749280423
1626177393497.04,-4.27688470803317
1626177393500.37,-4.26830223420885
1626177393503.69,-4.27010527492825
1626177393507.02,-4.26895132886783
1626177393510.35,-4.25128152981776
1626177393513.67,-4.21990862130029
1626177393517,-4.22438016228439
1626177393520.32,-4.22647168951889
1626177393523.65,-4.21284070168027
1626177393526.98,-4.19935395709919
1626177393530.3,-4.19502665937265
1626177393533.63,-4.19957032198552
1626177393536.96,-4.20606126857534
1626177393540.28,-4.19769515963735
1626177393543.61,-4.19149269956263
1626177393546.94,-4.19740667312225
1626177393550.26,-4.21348979633925
1626177393553.59,-4.24666574557611
1626177393556.92,-4.27674046477562
1626177393560.24,-4.32361952347988
1626177393563.57,-4.33342806499339
1626177393566.89,-4.35564152665633
1626177393570.22,-4.38023500206888
1626177393573.55,-4.42834012846233
1626177393576.87,-4.43757169694563
1626177393580.2,-4.46836763243289
1626177393583.53,-4.4707476461825
1626177393586.85,-4.48603743148296
1626177393590.18,-4.49014836432318
1626177393593.51,-4.51589578579614
1626177393596.83,-4.53075284132395
1626177393600.16,-4.51892489420472
1626177393603.49,-4.54214805867053
1626177393606.81,-4.55722147908467
1626177393610.14,-4.58520467104968
1626177393613.46,-4.58563740082233
1626177393616.79,-4.59494109093441
1626177393620.12,-4.58376223847416
1626177393623.44,-4.58224768426987
1626177393626.77,-4.59443623953298
1626177393630.1,-4.60042233472137
1626177393633.42,-4.59825868585809
1626177393636.75,-4.5985471723732
1626177393640.08,-4.61246664672692
1626177393643.4,-4.61383695767366
1626177393646.73,-4.61715455259735
1626177393650.05,-4.60871632203058
1626177393653.38,-4.6220588233541
1626177393656.71,-4.61852486354409
1626177393660.03,-4.62306852615697
1626177393663.36,-4.6310019053223
1626177393666.69,-4.62717945899719
1626177393670.01,-4.63395889210211
1626177393673.34,-4.6488880692587
1626177393676.67,-4.64189227126745
1626177393679.99,-4.63619466259416
1626177393683.32,-4.65162869115218
1626177393686.65,-4.62061639077859
1626177393689.97,-4.62393398570227
1626177393693.3,-4.63035281066332
1626177393696.62,-4.61477453884775
1626177393699.95,-4.62660248596698
1626177393703.28,-4.63648314910926
1626177393706.6,-4.61895759331675
1626177393709.93,-4.62350125592962
1626177393713.26,-4.61953456634695
1626177393716.58,-4.63215585138271
1626177393719.91,-4.6375649735409
1626177393723.24,-4.64391167687317
1626177393726.56,-4.64297409569908
1626177393729.89,-4.62270791801309
1626177393733.22,-4.63980074403295
1626177393736.54,-4.63468010838987
1626177393739.87,-4.63157887835251
1626177393743.19,-4.63215585138271
1626177393746.52,-4.63496859490497
1626177393749.85,-4.61239452509815
1626177393753.17,-4.62126548543757
1626177393756.5,-4.66165359755201
1626177393759.83,-4.62544853990657
1626177393763.15,-4.63684375725314
1626177393766.48,-4.62905462134536
1626177393769.81,-4.64996989369034
1626177393773.13,-4.6372764870258
1626177393776.46,-4.62631399945188
1626177393779.79,-4.6328049460417
1626177393783.11,-4.63374252721578
1626177393786.44,-4.63215585138271
1626177393789.76,-4.64311833895664
1626177393793.09,-4.64960928554646
1626177393796.42,-4.64182014963867
1626177393799.74,-4.64340682547174
1626177393803.07,-4.6426134875552
1626177393806.4,-4.63410313535966
1626177393809.72,-4.65436931304566
1626177393813.05,-4.65372021838668
1626177393816.38,-4.65739842145424
1626177393819.7,-4.66691847645265
1626177393823.03,-4.66309603012753
1626177393826.35,-4.64030559543438
1626177393829.68,-4.64975352880401
1626177393833.01,-4.64218075778255
1626177393836.33,-4.6444165282746
1626177393839.66,-4.66439421944549
1626177393842.99,-4.64975352880401
1626177393846.31,-4.64614744736522
1626177393849.64,-4.65191717766728
1626177393852.97,-4.65198929929606
1626177393856.29,-4.66201420569589
1626177393859.62,-4.64780624482706
1626177393862.95,-4.65552325910607
1626177393866.27,-4.6536480967579
1626177393869.6,-4.65472992118954
1626177393872.92,-4.64636381225155
1626177393876.25,-4.64073832520703
1626177393879.58,-4.64585896085012
1626177393882.9,-4.65112383975075
1626177393886.23,-4.64932079903135
1626177393889.56,-4.64405592013072
1626177393892.88,-4.65249415069749
1626177393896.21,-4.66699059808142
1626177393899.54,-4.67175062558062
1626177393902.86,-4.67665489633738
1626177393906.19,-4.66482694921815
1626177393909.52,-4.64225287941133
1626177393912.84,-4.65732629982547
1626177393916.17,-4.66295178686998
1626177393919.49,-4.67239972023961
1626177393922.82,-4.66028328660527
1626177393926.15,-4.67607792330717
1626177393929.47,-4.67276032838349
1626177393932.8,-4.66641362505122
1626177393936.13,-4.67333730141369
1626177393939.45,-4.67110153092164
1626177393942.78,-4.68040522103372
1626177393946.11,-4.66713484133897
1626177393949.43,-4.68228038338189
1626177393952.76,-4.67975612637474
1626177393956.09,-4.66533180061958
1626177393959.41,-4.65559538073485
1626177393962.74,-4.67463549073166
1626177393966.06,-4.67369790955757
1626177393969.39,-4.65696569168159
1626177393972.72,-4.67708762611003
1626177393976.04,-4.67744823425391
1626177393979.37,-4.67074092277776
1626177393982.7,-4.67752035588269
1626177393986.02,-4.66908212531592
1626177393989.35,-4.67362578792879
1626177393992.68,-4.66172571918079
1626177393996,-4.67102940929287
1626177393999.33,-4.68567009993435
1626177394002.66,-4.66547604387713
1626177394005.98,-4.67268820675471
1626177394009.31,-4.67030819300511
1626177394012.63,-4.67405851770145
1626177394015.96,-4.67917915334453
1626177394019.29,-4.66886576042959
1626177394022.61,-4.66756757111163
1626177394025.94,-4.66922636857347
1626177394029.27,-4.65869661077221
1626177394032.59,-4.63222797301149
1626177394035.92,-4.62941522948923
1626177394039.25,-4.62321276941452
1626177394042.57,-4.61037511949243
1626177394045.9,-4.58938772551867
1626177394049.22,-4.60438902430404
1626177394052.55,-4.5508747757524
1626177394055.88,-4.51070302852428
1626177394059.2,-4.49728840557199
1626177394062.53,-4.51733821837166
1626177394065.86,-4.55029780272219
1626177394069.18,-4.56775123688593
1626177394072.51,-4.56587607453776
1626177394075.84,-4.54647535639708
1626177394079.16,-4.55159599204016
1626177394082.49,-4.58715195502662
1626177394085.82,-4.64073832520703
1626177394089.14,-4.65754266471179
1626177394092.47,-4.66980334160368
1626177394095.79,-4.67268820675471
1626177394099.12,-4.6652596789908
1626177394102.45,-4.69057437069111
1626177394105.77,-4.69526227656153
1626177394109.1,-4.69814714171256
1626177394112.43,-4.6828573564121
1626177394115.75,-4.69129558697886
1626177394119.08,-4.69995018243196
1626177394122.41,-4.73016914488901
1626177394125.73,-4.70730658856709
1626177394129.06,-4.71942302220142
1626177394132.39,-4.70651325065056
1626177394135.71,-4.70283504758299
1626177394139.04,-4.71574481913386
1626177394142.36,-4.73658796985006
1626177394145.69,-4.7269236715941
1626177394149.02,-4.73226067212351
1626177394152.34,-4.72685154996533
1626177394155.67,-4.71697088682305
1626177394159,-4.71805271125468
1626177394162.32,-4.73240491538106
1626177394165.65,-4.73161157746453
1626177394168.98,-4.73204430723719
1626177394172.3,-4.74603590321969
1626177394175.63,-4.79241011052252
1626177394178.96,-4.84383283183966
1626177394182.28,-4.95237588314723
1626177394185.61,-5.04707158172984
1626177394188.93,-5.05507708252395
1626177394192.26,-5.01584291646992
1626177394195.59,-4.85118923797479
1626177394198.91,-4.7153120893612
1626177394202.24,-4.33465413268258
1626177394205.57,-3.72551485604225
1626177394208.89,-3.3678636989431
1626177394212.22,-2.8387794302439
1626177394215.55,-2.7931985608576
1626177394218.87,-2.83733699766839
1626177394222.2,-3.22124042764192
1626177394225.52,-3.4197191500329
1626177394228.85,-3.84523675981006
1626177394232.18,-4.36148337858717
1626177394235.5,-4.52988738177864
1626177394238.83,-4.6488880692587
1626177394242.16,-4.64355106872929
1626177394245.48,-4.61715455259735
1626177394248.81,-4.59732110468401
1626177394252.14,-4.5991241454034
1626177394255.46,-4.59248895555603
1626177394258.79,-4.60684115968241
1626177394262.12,-4.60691328131119
1626177394265.44,-4.62660248596698
1626177394268.77,-4.65667720516648
1626177394272.09,-4.62927098623168
1626177394275.42,-4.63157887835251
1626177394278.75,-4.64182014963867
1626177394282.07,-4.64787836645584
1626177394285.4,-4.64737351505441
1626177394288.73,-4.63929589263152
1626177394292.05,-4.63619466259416
1626177394295.38,-4.64189227126745
1626177394298.71,-4.63157887835251
1626177394302.03,-4.63843043308621
1626177394305.36,-4.61405332255999
1626177394308.69,-4.63857467634376
1626177394312.01,-4.62811704017127
1626177394315.34,-4.61838062028654
1626177394318.66,-4.62234730986921
1626177394321.99,-4.62241943149798
1626177394325.32,-4.61794789051388
1626177394328.64,-4.60107142938035
1626177394331.97,-4.60157628078178
1626177394335.3,-4.60525448384934
1626177394338.62,-4.60655267316731
1626177394341.95,-4.59732110468401
1626177394345.28,-4.58982045529133
1626177394348.6,-4.5696263992341
1626177394351.93,-4.55311054624445
1626177394355.26,-4.56349606078816
1626177394358.58,-4.55750996559977
1626177394361.91,-4.55426449230486
1626177394365.23,-4.54539353196544
1626177394368.56,-4.54560989685177
1626177394371.89,-4.53580135533826
1626177394375.21,-4.53832561234541
1626177394378.54,-4.51351577204654
1626177394381.87,-4.51236182598613
1626177394385.19,-4.49490839182238
1626177394388.52,-4.4939708106483
1626177394391.85,-4.47457009250761
1626177394395.17,-4.47918587674926
1626177394398.5,-4.46101122629776
1626177394401.82,-4.45358269853386
1626177394405.15,-4.44925540080731
1626177394408.48,-4.42567162819763
1626177394411.8,-4.41528611365391
1626177394415.13,-4.43360500736296
1626177394418.46,-4.3891059624083
1626177394421.78,-4.3661712844576
1626177394425.11,-4.33523110571278
1626177394428.44,-4.3366735382883
1626177394431.76,-4.30739215700533
1626177394435.09,-4.28763083072076
1626177394438.42,-4.28517869534239
1626177394441.74,-4.28618839814525
1626177394445.07,-4.2723410454203
1626177394448.39,-4.2636864499672
1626177394451.72,-4.23829963663812
1626177394455.05,-4.2365687175475
1626177394458.37,-4.23108747376054
1626177394461.7,-4.20901825535515
1626177394465.03,-4.21399464774068
1626177394468.35,-4.21911528338376
1626177394471.68,-4.20822491743862
1626177394475.01,-4.21550920194497
1626177394478.33,-4.22863533838217
1626177394481.66,-4.26036885504351
1626177394484.99,-4.26952830189804
1626177394488.31,-4.32246557741947
1626177394491.64,-4.32253769904825
1626177394494.96,-4.3524681749902
1626177394498.29,-4.37251798778987
1626177394501.62,-4.3911974896428
1626177394504.94,-4.4191806816078
1626177394508.27,-4.47687798462844
1626177394511.6,-4.480556187696
1626177394514.92,-4.47305553830332
1626177394518.25,-4.51531881276593
1626177394521.58,-4.51640063719757
1626177394524.9,-4.52592069219598
1626177394528.23,-4.53854197723174
1626177394531.56,-4.53767651768643
1626177394534.88,-4.56198150658387
1626177394538.21,-4.56046695237958
1626177394541.53,-4.57582885930882
1626177394544.86,-4.5848440629058
1626177394548.19,-4.56493849336368
1626177394551.51,-4.57517976464984
1626177394554.84,-4.58239192752742
1626177394558.17,-4.62076063403614
1626177394561.49,-4.61578424165061
1626177394564.82,-4.60063869960769
1626177394568.15,-4.58801741457193
1626177394571.47,-4.58469981964824
1626177394574.8,-4.59905202377463
1626177394578.12,-4.5878010496856
1626177394581.45,-4.5848440629058
1626177394584.78,-4.5916956176395
1626177394588.1,-4.59573442885094
1626177394591.43,-4.59119076623807
1626177394594.76,-4.59760959119911
1626177394598.08,-4.60208113218321
1626177394601.41,-4.5985471723732
1626177394604.74,-4.58664710362519
1626177394608.06,-4.57207853461248
1626177394611.39,-4.57806462980087
1626177394614.72,-4.59371502324522
1626177394618.04,-4.60222537544076
1626177394621.37,-4.60078294286525
1626177394624.69,-4.59126288786684
1626177394628.02,-4.59609503699482
1626177394631.35,-4.59501321256318
1626177394634.67,-4.60676903805364
1626177394638,-4.59068591483664
1626177394641.33,-4.5872240766554
1626177394644.65,-4.57330460230167
1626177394647.98,-4.57950706237639
1626177394651.31,-4.5848440629058
1626177394654.63,-4.5946526044193
1626177394657.96,-4.59010894180643
1626177394661.29,-4.58253617078497
1626177394664.61,-4.59710473979768
1626177394667.94,-4.59724898305523
1626177394671.26,-4.59277744207113
1626177394674.59,-4.58080525169435
1626177394677.92,-4.59818656422932
1626177394681.24,-4.59753746957034
1626177394684.57,-4.59299380695746
1626177394687.9,-4.5988356588883
1626177394691.22,-4.60063869960769
1626177394694.55,-4.61066360600753
1626177394697.88,-4.60756237597017
1626177394701.2,-4.60720176782629
1626177394704.53,-4.61484666047653
1626177394707.86,-4.61657757956714
1626177394711.18,-4.60294659172852
1626177394714.51,-4.59811444260054
1626177394717.83,-4.59126288786684
1626177394721.16,-4.58852226597336
1626177394724.49,-4.60244174032709
1626177394727.81,-4.60006172657749
1626177394731.14,-4.60583145687955
1626177394734.47,-4.61693818771102
1626177394737.79,-4.59897990214585
1626177394741.12,-4.60157628078178
1626177394744.45,-4.5970326181689
1626177394747.77,-4.60842783551548
1626177394751.1,-4.60186476729688
1626177394754.43,-4.59155137438194
1626177394757.75,-4.59623928025237
1626177394761.08,-4.59530169907829
1626177394764.4,-4.5946526044193
1626177394767.73,-4.59652776676747
1626177394771.06,-4.59220046904093
1626177394774.38,-4.60460538919036
1626177394777.71,-4.59919626703218
1626177394781.04,-4.60734601108384
1626177394784.36,-4.59991748331994
1626177394787.69,-4.60143203752423
1626177394791.02,-4.58707983339785
1626177394794.34,-4.58318526544395
1626177394797.67,-4.58570952245111
1626177394800.99,-4.60460538919036
1626177394804.32,-4.59926838866095
1626177394807.65,-4.59544594233584
1626177394810.97,-4.61477453884775
1626177394814.3,-4.60316295661485
1626177394817.63,-4.60438902430404
1626177394820.95,-4.61001451134855
1626177394824.28,-4.59797019934299
1626177394827.61,-4.60489387570547
1626177394830.93,-4.59688837491135
1626177394834.26,-4.58744044154172
1626177394837.59,-4.59133500949562
1626177394840.91,-4.58996469854888
1626177394844.24,-4.58635861711009
1626177394847.56,-4.57893008934618
1626177394850.89,-4.60893268691691
1626177394854.22,-4.60071082123647
1626177394857.54,-4.6083557138867
1626177394860.87,-4.5922725906697
1626177394864.2,-4.58700771176907
1626177394867.52,-4.59140713112439
1626177394870.85,-4.59090227972296
1626177394874.18,-4.58873863085969
1626177394877.5,-4.59393138813155
1626177394880.83,-4.6152072686204
1626177394884.16,-4.60402841616016
1626177394887.48,-4.60842783551548
1626177394890.81,-4.60691328131119
1626177394894.13,-4.59876353725952
1626177394897.46,-4.59919626703218
1626177394900.79,-4.59537382070706
1626177394904.11,-4.59768171282789
1626177394907.44,-4.59869141563075
1626177394910.77,-4.59140713112439
1626177394914.09,-4.59876353725952
1626177394917.42,-4.60200901055443
1626177394920.75,-4.58174283286844
1626177394924.07,-4.58599800896621
1626177394927.4,-4.59890778051708
1626177394930.73,-4.59155137438194
1626177394934.05,-4.58015615703537
1626177394937.38,-4.58924348226112
1626177394940.7,-4.59429199627542
1626177394944.03,-4.60135991589545
1626177394947.36,-4.59573442885094
1626177394950.68,-4.57272762927146
1626177394954.01,-4.55426449230486
1626177394957.34,-4.57049185877941
1626177394960.66,-4.58628649548131
1626177394963.99,-4.5580148170012
1626177394967.32,-4.56616456105287
1626177394970.64,-4.54359049124604
1626177394973.97,-4.5461147482532
1626177394977.29,-4.54286927495829
1626177394980.62,-4.53039223318007
1626177394983.95,-4.48495560705133
1626177394987.27,-4.46274214538838
1626177394990.6,-4.43749957531686
1626177394993.93,-4.41795461391862
1626177394997.25,-4.42401283073578
1626177395000.58,-4.4600015234949
1626177395003.91,-4.47420948436373
1626177395007.23,-4.46425669959267
1626177395010.56,-4.46937733523576
1626177395013.89,-4.47658949811333
1626177395017.21,-4.48401802587724
1626177395020.54,-4.51387638019042
1626177395023.86,-4.54056138283746
1626177395027.19,-4.55231720832791
1626177395030.52,-4.57438642673331
1626177395033.84,-4.58881075248846
1626177395037.17,-4.58671922525397
1626177395040.5,-4.59313805021501
1626177395043.82,-4.59429199627542
1626177395047.15,-4.5967441316538
1626177395050.48,-4.59385926650277
1626177395053.8,-4.59919626703218
1626177395057.13,-4.57900221097496
1626177395060.46,-4.60575933525078
1626177395063.78,-4.6059757001371
1626177395067.11,-4.61080784926508
1626177395070.43,-4.61838062028654
1626177395073.76,-4.62306852615697
1626177395077.09,-4.61261088998448
1626177395080.41,-4.61982305286205
1626177395083.74,-4.61261088998448
1626177395087.07,-4.61376483604489
1626177395090.39,-4.61499090373408
1626177395093.72,-4.61563999839306
1626177395097.05,-4.59696049654013
1626177395100.37,-4.60770661922772
1626177395103.7,-4.60503811896302
1626177395107.03,-4.62278003964186
1626177395110.35,-4.61895759331675
1626177395113.68,-4.66554816550591
1626177395117,-4.76204690480791
1626177395120.33,-4.86503659069974
1626177395123.66,-4.91458414966871
1626177395126.98,-4.96066987045644
1626177395130.31,-4.8538577382395
1626177395133.64,-4.77524516287388
1626177395136.96,-4.49837023000362
1626177395140.29,-3.96596836638074
1626177395143.62,-3.64524348321479
1626177395146.94,-2.92554174966118
1626177395150.27,-2.57611245824247
1626177395153.59,-2.560822672942
1626177395156.92,-2.69597860526784
1626177395160.25,-3.19116570844242
1626177395163.57,-3.43724470582541
1626177395166.9,-3.92240690260016
1626177395170.23,-4.33609656525809
1626177395173.55,-4.46678095659983
1626177395176.88,-4.53370982810376
1626177395180.21,-4.44882267103466
1626177395183.53,-4.46750217288758
1626177395186.86,-4.43418198039317
1626177395190.19,-4.46108334792654
1626177395193.51,-4.4647615509941
1626177395196.84,-4.47110825432637
1626177395200.16,-4.49375444576197
1626177395203.49,-4.49382656739075
1626177395206.82,-4.51019817712285
1626177395210.14,-4.53428680113397
1626177395213.47,-4.52786797617292
1626177395216.8,-4.55851966840263
1626177395220.12,-4.53363770647498
1626177395223.45,-4.54229230192808
1626177395226.78,-4.54214805867053
1626177395230.1,-4.5308970845815
1626177395233.43,-4.53565711208071
1626177395236.76,-4.53976804492093
1626177395240.08,-4.53623408511091
1626177395243.41,-4.52902192223333
1626177395246.73,-4.52245885401474
1626177395250.06,-4.52736312477149
1626177395253.39,-4.52548796242332
1626177395256.71,-4.52036732678024
1626177395260.04,-4.52894980060456
1626177395263.37,-4.52563220568087
1626177395266.69,-4.51459759647818
1626177395270.02,-4.50031751398057
1626177395273.35,-4.5034908656467
1626177395276.67,-4.51842004280329
1626177395280,-4.49909144629138
1626177395283.33,-4.47637313322701
1626177395286.65,-4.4984423516324
1626177395289.98,-4.5011108518971
1626177395293.3,-4.50341874401793
1626177395296.63,-4.48971563455053
1626177395299.96,-4.47096401106882
1626177395303.28,-4.46519428076676
1626177395306.61,-4.4594245504647
1626177395309.94,-4.45574634739713
1626177395313.26,-4.44088929186932
1626177395316.59,-4.42617647959906
1626177395319.92,-4.44247596770238
1626177395323.24,-4.43483107505215
1626177395326.57,-4.42567162819763
1626177395329.9,-4.41658430297188
1626177395333.22,-4.4123291268741
1626177395336.55,-4.41485338388126
1626177395339.87,-4.39682297668731
1626177395343.2,-4.36451248699576
1626177395346.53,-4.35888699995124
1626177395349.85,-4.3456166202565
1626177395353.18,-4.32275406393457
1626177395356.51,-4.30472365674062
1626177395359.83,-4.29895392643856
1626177395363.16,-4.29145327704588
1626177395366.49,-4.29159752030343
1626177395369.81,-4.2565464087184
1626177395373.14,-4.23519840660076
1626177395376.46,-4.2115425123623
1626177395379.79,-4.21269645842272
1626177395383.12,-4.19654121357694
1626177395386.44,-4.19322361865325
1626177395389.77,-4.18024172547361
1626177395393.1,-4.14764274926695
1626177395396.42,-4.16365375085518
1626177395399.75,-4.15586461494739
1626177395403.08,-4.15485491214453
1626177395406.4,-4.14165665407856
1626177395409.73,-4.13949300521529
1626177395413.06,-4.17137076513419
1626177395416.38,-4.17569806286073
1626177395419.71,-4.18428053668505
1626177395423.03,-4.21291282330904
1626177395426.36,-4.25618580057452
1626177395429.69,-4.25488761125655
1626177395433.01,-4.28517869534239
1626177395436.34,-4.3506651342708
1626177395439.67,-4.36321429767779
1626177395442.99,-4.35463182385347
1626177395446.32,-4.38203804278827
1626177395449.65,-4.38384108350767
1626177395452.97,-4.42834012846233
1626177395456.3,-4.42538314168252
1626177395459.63,-4.43165772338602
1626177395462.95,-4.48142164724131
1626177395466.28,-4.4757961601968
1626177395469.6,-4.47449797087884
1626177395472.93,-4.4775992009162
1626177395476.26,-4.50067812212445
1626177395479.58,-4.51077515015306
1626177395482.91,-4.52101642143922
1626177395486.24,-4.52231461075719
1626177395489.56,-4.50514966310855
1626177395492.89,-4.52541584079454
1626177395496.22,-4.51885277257595
1626177395499.54,-4.53320497670233
1626177395502.87,-4.52541584079454
1626177395506.2,-4.52786797617292
1626177395509.52,-4.53132981435416
1626177395512.85,-4.54986507294954
1626177395516.17,-4.53161830086926
1626177395519.5,-4.54705232942728
1626177395522.83,-4.53118557109661
1626177395526.15,-4.53183466575559
1626177395529.48,-4.54214805867053
1626177395532.81,-4.53868622048929
1626177395536.13,-4.5484947620028
1626177395539.46,-4.54661959965463
1626177395542.79,-4.5324116387858
1626177395546.11,-4.54524928870789
1626177395549.44,-4.53767651768643
1626177395552.76,-4.53796500420153
1626177395556.09,-4.5395516800346
1626177395559.42,-4.53666681488357
1626177395562.74,-4.54488868056401
1626177395566.07,-4.54012865306481
1626177395569.4,-4.54835051874525
1626177395572.72,-4.5237570433327
1626177395576.05,-4.52303582704494
1626177395579.38,-4.54734081594238
1626177395582.7,-4.55137962715383
1626177395586.03,-4.55873603328896
1626177395589.36,-4.54452807242013
1626177395592.68,-4.54229230192808
1626177395596.01,-4.53082496295273
1626177395599.33,-4.53306073344478
1626177395602.66,-4.54452807242013
1626177395605.99,-4.54077774772379
1626177395609.31,-4.55361539764588
1626177395612.64,-4.56861669643124
1626177395615.97,-4.55859179003141
1626177395619.29,-4.55736572234222
1626177395622.62,-4.55599541139548
1626177395625.95,-4.54524928870789
1626177395629.27,-4.55787057374365
1626177395632.6,-4.56349606078816
1626177395635.93,-4.57734341351311
1626177395639.25,-4.58109373820946
1626177395642.58,-4.569337912719
1626177395645.9,-4.57748765677067
1626177395649.23,-4.56421727707592
1626177395652.56,-4.55693299256956
1626177395655.88,-4.55585116813793
1626177395659.21,-4.59494109093441
1626177395662.54,-4.55383176253221
1626177395665.86,-4.57337672393045
1626177395669.19,-4.57316035904412
1626177395672.52,-4.58203131938354
1626177395675.84,-4.57128519669595
1626177395679.17,-4.58195919775476
1626177395682.5,-4.58073313006558
1626177395685.82,-4.57568461605127
1626177395689.15,-4.57294399415779
1626177395692.47,-4.57474703487719
1626177395695.8,-4.57734341351311
1626177395699.13,-4.58159858961089
1626177395702.45,-4.57222277787003
1626177395705.78,-4.57864160283108
1626177395709.11,-4.56753487199961
1626177395712.43,-4.5740979402182
1626177395715.76,-4.57741553514189
1626177395719.09,-4.59046954995031
1626177395722.41,-4.58592588733743
1626177395725.74,-4.59559018559339
1626177395729.06,-4.59364290161644
1626177395732.39,-4.59046954995031
1626177395735.72,-4.57986767052027
1626177395739.04,-4.58527679267845
1626177395742.37,-4.57662219722536
1626177395745.7,-4.57150156158228
1626177395749.02,-4.58621437385254
1626177395752.35,-4.58585376570866
1626177395755.68,-4.59659988839625
1626177395759,-4.585421035936
1626177395762.33,-4.59429199627542
1626177395765.66,-4.58614225222376
1626177395768.98,-4.60172052403933
1626177395772.31,-4.58974833366255
1626177395775.63,-4.58772892805683
1626177395778.96,-4.58022827866415
1626177395782.29,-4.58361799521661
1626177395785.61,-4.59869141563075
1626177395788.94,-4.59025318506398
1626177395792.27,-4.58268041404252
1626177395795.59,-4.59631140188115
1626177395798.92,-4.59970111843361
1626177395802.25,-4.60453326756159
1626177395805.57,-4.61030299786365
1626177395808.9,-4.59133500949562
1626177395812.23,-4.58556527919355
1626177395815.55,-4.5898925769201
1626177395818.88,-4.58491618453457
1626177395822.2,-4.60042233472137
1626177395825.53,-4.60842783551548
1626177395828.86,-4.59934051028973
1626177395832.18,-4.59010894180643
1626177395835.51,-4.59688837491135
1626177395838.84,-4.60583145687955
1626177395842.16,-4.60958178157589
1626177395845.49,-4.58614225222376
1626177395848.82,-4.59378714487399
1626177395852.14,-4.59623928025237
1626177395855.47,-4.59068591483664
1626177395858.8,-4.57344884555922
1626177395862.12,-4.57027549389309
1626177395865.45,-4.58361799521661
1626177395868.77,-4.5669578989694
1626177395872.1,-4.57438642673331
1626177395875.43,-4.56688577734062
1626177395878.75,-4.56364030404571
1626177395882.08,-4.53911895026194
1626177395885.41,-4.55051416760852
1626177395888.73,-4.54236442355686
1626177395892.06,-4.52931040874844
1626177395895.39,-4.49252837807278
1626177395898.71,-4.43634562925644
1626177395902.04,-4.41557460016902
1626177395905.36,-4.39790480111895
1626177395908.69,-4.43396561550684
1626177395912.02,-4.43122499361336
1626177395915.34,-4.45596271228346
1626177395918.67,-4.48250347167295
1626177395922,-4.48928290477787
1626177395925.32,-4.4781761739464
1626177395928.65,-4.50623148754018
1626177395931.98,-4.51906913746228
1626177395935.3,-4.56234211472775
1626177395938.63,-4.57279975090024
1626177395941.96,-4.57517976464984
1626177395945.28,-4.57193429135493
1626177395948.61,-4.59768171282789
1626177395951.93,-4.61246664672692
1626177395955.26,-4.58203131938354
1626177395958.59,-4.60511024059179
1626177395961.91,-4.59934051028973
1626177395965.24,-4.59566230722216
1626177395968.57,-4.60741813271262
1626177395971.89,-4.60035021309259
1626177395975.22,-4.59530169907829
1626177395978.55,-4.62270791801309
1626177395981.87,-4.61643333630959
1626177395985.2,-4.59905202377463
1626177395988.53,-4.60056657797892
1626177395991.85,-4.60273022684219
1626177395995.18,-4.60200901055443
1626177395998.5,-4.60712964619752
1626177396001.83,-4.59905202377463
1626177396005.16,-4.59133500949562
1626177396008.48,-4.59270532044236
1626177396011.81,-4.58289677892885
1626177396015.14,-4.58397860336049
1626177396018.46,-4.62003941774838
1626177396021.79,-4.64138741986602
1626177396025.12,-4.75981113431587
1626177396028.44,-4.85746381967829
1626177396031.77,-4.88977430936984
1626177396035.1,-4.91429566315361
1626177396038.42,-4.82630727604714
1626177396041.75,-4.76370570226976
1626177396045.07,-4.50442844682079
1626177396048.4,-4.00556314057864
1626177396051.73,-3.67697699987614
1626177396055.05,-2.91775261375339
1626177396058.38,-2.57474214729573
1626177396061.71,-2.56688088975917
1626177396065.03,-2.69922407856275
1626177396068.36,-3.16065825947026
1626177396071.69,-3.40284268889936
1626177396075.01,-3.91771899672973
1626177396078.34,-4.31474856314046
1626177396081.67,-4.43872564300604
1626177396084.99,-4.50673633894161
1626177396088.32,-4.44168262978585
1626177396091.64,-4.43807654834706
1626177396094.97,-4.45653968531366
1626177396098.3,-4.46050637489633
1626177396101.62,-4.46981006500841
1626177396104.95,-4.47305553830332
1626177396108.28,-4.48336893121826
1626177396111.6,-4.49620658114035
1626177396114.93,-4.51329940716021
1626177396118.26,-4.53010374666497
1626177396121.58,-4.51171273132714
1626177396124.91,-4.52195400261331
1626177396128.23,-4.52656978685496
1626177396131.56,-4.53551286882316
1626177396134.89,-4.52491098939311
1626177396138.21,-4.52931040874844
1626177396141.54,-4.53551286882316
1626177396144.87,-4.52844494920313
1626177396148.19,-4.5392631935195
1626177396151.52,-4.52714675988516
1626177396154.85,-4.52635342196863
1626177396158.17,-4.52534371916577
1626177396161.5,-4.52051157003779
1626177396164.83,-4.49671143254178
1626177396168.15,-4.49923568954893
1626177396171.48,-4.52072793492412
1626177396174.8,-4.4892107831491
1626177396178.13,-4.49599021625402
1626177396181.46,-4.49036472920951
1626177396184.78,-4.47925799837804
1626177396188.11,-4.48863381011889
1626177396191.44,-4.47377675459108
1626177396194.76,-4.48603743148296
1626177396198.09,-4.48726349917215
1626177396201.42,-4.4662761051984
1626177396204.74,-4.47269493015944
1626177396208.07,-4.45682817182877
1626177396211.4,-4.44673114380016
1626177396214.72,-4.4418268730434
1626177396218.05,-4.42870073660621
1626177396221.37,-4.43627350762767
1626177396224.7,-4.40677576145837
1626177396228.03,-4.4030975583908
1626177396231.35,-4.39696721994486
1626177396234.68,-4.39393811153628
1626177396238.01,-4.39473144945281
1626177396241.33,-4.39747207134629
1626177396244.66,-4.36847917657842
1626177396247.99,-4.36242095976126
1626177396251.31,-4.35737244574695
1626177396254.64,-4.33768324109116
1626177396257.97,-4.32693711840357
1626177396261.29,-4.31784979317782
1626177396264.62,-4.3003242373853
1626177396267.94,-4.29888180480979
1626177396271.27,-4.26916769375416
1626177396274.6,-4.24659362394734
1626177396277.92,-4.23923721781221
1626177396281.25,-4.21522071542987
1626177396284.58,-4.20750370115086
1626177396287.9,-4.19884910569776
1626177396291.23,-4.20627763346167
1626177396294.56,-4.17843868475421
1626177396297.88,-4.1817562796779
1626177396301.21,-4.1591100882423
1626177396304.53,-4.13386751817078
1626177396307.86,-4.13523782911752
1626177396311.19,-4.14699365460797
1626177396314.51,-4.1614901019919
1626177396317.84,-4.16769256206662
1626177396321.17,-4.14692153297919
1626177396324.49,-4.14728214112307
1626177396327.82,-4.16711558903642
1626177396331.15,-4.20094063293226
1626177396334.47,-4.21817770220968
1626177396337.8,-4.24067965038772
1626177396341.13,-4.29541996662855
1626177396344.45,-4.31532553617067
1626177396347.78,-4.33537534897034
1626177396351.1,-4.33753899783361
1626177396354.43,-4.36631552771515
1626177396357.76,-4.37338344733518
1626177396361.08,-4.39963572020957
1626177396364.41,-4.42841225009111
1626177396367.74,-4.44262021095994
1626177396371.06,-4.42898922312131
1626177396374.39,-4.4302152908105
1626177396377.72,-4.45596271228346
1626177396381.04,-4.45466452296549
1626177396384.37,-4.45718877997265
1626177396387.7,-4.46966582175086
1626177396391.02,-4.4963508243979
1626177396394.35,-4.48401802587724
1626177396397.67,-4.48344105284703
1626177396401,-4.48098891746866
1626177396404.33,-4.48459499890745
1626177396407.65,-4.50212055469996
1626177396410.98,-4.51257819087245
1626177396414.31,-4.50601512265386
1626177396417.63,-4.50298601424527
1626177396420.96,-4.48163801212764
1626177396424.29,-4.48899441826277
1626177396427.61,-4.50175994655608
1626177396430.94,-4.49223989155768
1626177396434.27,-4.47904163349171
1626177396437.59,-4.5094769608351
1626177396440.92,-4.4936823241332
1626177396444.24,-4.49260049970156
1626177396447.57,-4.49779325697342
1626177396450.9,-4.47868102534783
1626177396454.22,-4.4921677699289
1626177396457.55,-4.50103873026833
1626177396460.88,-4.49007624269441
1626177396464.2,-4.49829810837485
1626177396467.53,-4.48134952561254
1626177396470.86,-4.46591549705452
1626177396474.18,-4.47954648489314
1626177396477.51,-4.49764901371586
1626177396480.83,-4.47449797087884
1626177396484.16,-4.45920818557837
1626177396487.49,-4.47795980906007
1626177396490.81,-4.48207074190029
1626177396494.14,-4.47687798462844
1626177396497.47,-4.46988218663719
1626177396500.79,-4.48315256633193
1626177396504.12,-4.47406524110618
1626177396507.45,-4.47449797087884
1626177396510.77,-4.45639544205611
1626177396514.1,-4.46396821307757
1626177396517.43,-4.47118037595515
1626177396520.75,-4.47976284977947
1626177396524.08,-4.48077255258233
1626177396527.4,-4.47182947061413
1626177396530.73,-4.47247856527311
1626177396534.06,-4.46981006500841
1626177396537.38,-4.49000412106563
1626177396540.71,-4.47983497140824
1626177396544.04,-4.48827320197501
1626177396547.36,-4.48546045845276
1626177396550.69,-4.45949667209347
1626177396554.02,-4.45069783338283
1626177396557.34,-4.46663671334228
1626177396560.67,-4.47485857902272
1626177396564,-4.48964351292175
1626177396567.32,-4.46555488891064
1626177396570.65,-4.45776575300285
1626177396573.97,-4.47853678209028
1626177396577.3,-4.47630101159823
1626177396580.63,-4.48214286352907
1626177396583.95,-4.48560470171031
1626177396587.28,-4.47666161974211
1626177396590.61,-4.48315256633193
1626177396593.93,-4.4853162151952
1626177396597.26,-4.48250347167295
1626177396600.59,-4.49649506765545
1626177396603.91,-4.50139933841221
1626177396607.24,-4.5073854336006
1626177396610.57,-4.49274474295911
1626177396613.89,-4.48351317447581
1626177396617.22,-4.49620658114035
1626177396620.54,-4.4921677699289
1626177396623.87,-4.48596530985419
1626177396627.2,-4.48618167474051
1626177396630.52,-4.48077255258233
1626177396633.85,-4.48971563455053
1626177396637.18,-4.48351317447581
1626177396640.5,-4.49094170223972
1626177396643.83,-4.48647016125562
1626177396647.16,-4.48012345792335
1626177396650.48,-4.49310535110299
1626177396653.81,-4.49620658114035
1626177396657.14,-4.49036472920951
1626177396660.46,-4.50269752773017
1626177396663.79,-4.5029138926165
1626177396667.11,-4.50103873026833
1626177396670.44,-4.49072533735339
1626177396673.77,-4.48452287727867
1626177396677.09,-4.49512475670871
1626177396680.42,-4.50377935216181
1626177396683.75,-4.51207333947102
1626177396687.07,-4.50031751398057
1626177396690.4,-4.50406783867691
1626177396693.73,-4.49721628394321
1626177396697.05,-4.49267262133034
1626177396700.38,-4.49959629769281
1626177396703.7,-4.52152127284065
1626177396707.03,-4.4942592971634
1626177396710.36,-4.48812895871746
1626177396713.68,-4.5073854336006
1626177396717.01,-4.50118297352588
1626177396720.34,-4.50089448701078
1626177396723.66,-4.49750477045831
1626177396726.99,-4.49267262133034
1626177396730.32,-4.50551027125243
1626177396733.64,-4.51012605549408
1626177396736.97,-4.5011108518971
1626177396740.3,-4.51279455575878
1626177396743.62,-4.50825089314591
1626177396746.95,-4.48481136379377
1626177396750.27,-4.50406783867691
1626177396753.6,-4.48798471545991
1626177396756.93,-4.49382656739075
1626177396760.25,-4.50399571704813
1626177396763.58,-4.47795980906007
1626177396766.91,-4.47291129504577
1626177396770.23,-4.46901672709188
1626177396773.56,-4.46512215913798
1626177396776.89,-4.42271464141782
1626177396780.21,-4.42538314168252
1626177396783.54,-4.37194101475966
1626177396786.87,-4.34648207980181
1626177396790.19,-4.34287599836302
1626177396793.52,-4.35153059381611
1626177396796.84,-4.39047627335504
1626177396800.17,-4.40028481486855
1626177396803.5,-4.43122499361336
1626177396806.82,-4.40605454517061
1626177396810.15,-4.40569393702673
1626177396813.48,-4.43360500736296
1626177396816.8,-4.47060340292494
1626177396820.13,-4.48322468796071
1626177396823.46,-4.51091939341061
1626177396826.78,-4.5231800703025
1626177396830.11,-4.53572923370948
1626177396833.44,-4.51048666363796
1626177396836.76,-4.5213770295831
1626177396840.09,-4.52339643518882
1626177396843.41,-4.51885277257595
1626177396846.74,-4.51762670488676
1626177396850.07,-4.51950186723493
1626177396853.39,-4.55044204597974
1626177396856.72,-4.53046435480885
1626177396860.05,-4.54236442355686
1626177396863.37,-4.53724378791377
1626177396866.7,-4.52786797617292
1626177396870.03,-4.54178745052665
1626177396873.35,-4.5440232210187
1626177396876.68,-4.53854197723174
1626177396880,-4.54539353196544
1626177396883.33,-4.56861669643124
1626177396886.66,-4.55549055999405
1626177396889.98,-4.55332691113078
1626177396893.31,-4.55152387041138
1626177396896.64,-4.54315776147339
1626177396899.96,-4.53897470700439
1626177396903.29,-4.59277744207113
1626177396906.62,-4.66071601637793
1626177396909.94,-4.71733149496692
1626177396913.27,-4.81137809889055
1626177396916.6,-4.88551913327207
1626177396919.92,-4.86720023956302
1626177396923.25,-4.77740881173716
1626177396926.57,-4.67348154467124
1626177396929.9,-4.40064542301243
1626177396933.23,-3.87660966832753
1626177396936.55,-3.55292779838178
1626177396939.88,-2.89517854394657
1626177396943.21,-2.67261119754448
1626177396946.53,-2.64347405951906
1626177396949.86,-2.84714553918189
1626177396953.19,-3.26826372960374
1626177396956.51,-3.46681457362349
1626177396959.84,-3.96430956891889
1626177396963.17,-4.38650958377237
1626177396966.49,-4.47356038970475
1626177396969.82,-4.48928290477787
1626177396973.14,-4.45819848277551
1626177396976.47,-4.41261761338921
1626177396979.8,-4.41391580270717
1626177396983.12,-4.42314737119047
1626177396986.45,-4.43129711524214
1626177396989.78,-4.44024019721034
1626177396993.1,-4.43324439921908
1626177396996.43,-4.44564931936852
1626177396999.76,-4.4662761051984
1626177397003.08,-4.46166032095675
1626177397006.41,-4.45776575300285
1626177397009.74,-4.46267002375961
1626177397013.06,-4.47449797087884
1626177397016.39,-4.47615676834068
1626177397019.71,-4.48517197193765
1626177397023.04,-4.46750217288758
1626177397026.37,-4.45379906342018
1626177397029.69,-4.46497791588043
1626177397033.02,-4.45228450921589
1626177397036.35,-4.45819848277551
1626177397039.67,-4.44117777838442
1626177397043,-4.45639544205611
1626177397046.33,-4.45798211788918
1626177397049.65,-4.45300572550365
1626177397052.98,-4.43742745368808
1626177397056.3,-4.44889479266343
1626177397059.63,-4.43548016971113
1626177397062.96,-4.43995171069523
1626177397066.28,-4.43410985876439
1626177397069.61,-4.43425410202194
1626177397072.94,-4.41434853247983
1626177397076.26,-4.41362731619207
1626177397079.59,-4.41319458641941
1626177397082.92,-4.41030972126838
1626177397086.24,-4.40807395077633
1626177397089.57,-4.37886469112214
1626177397092.9,-4.37626831248621
1626177397096.22,-4.38009075881133
1626177397099.55,-4.35657910783042
1626177397102.87,-4.3506651342708
1626177397106.2,-4.34727541771834
1626177397109.53,-4.33335594336461
1626177397112.85,-4.33321170010706
1626177397116.18,-4.31784979317782
1626177397119.51,-4.33090380798624
1626177397122.83,-4.32708136166112
1626177397126.16,-4.2976557371206
1626177397129.49,-4.26505676091394
1626177397132.81,-4.25128152981776
1626177397136.14,-4.2523633542494
1626177397139.47,-4.2478918132653
1626177397142.79,-4.2249571353146
1626177397146.12,-4.21796133732335
1626177397149.44,-4.17836656312544
1626177397152.77,-4.16588952134723
1626177397156.1,-4.16040827756027
1626177397159.42,-4.1266553552932
1626177397162.75,-4.12997295021688
1626177397166.08,-4.12542928760401
1626177397169.4,-4.10732675878129
1626177397172.73,-4.09405637908654
1626177397176.06,-4.08965695973122
1626177397179.38,-4.06708288992439
1626177397182.71,-4.05987072704681
1626177397186.04,-4.05143249648005
1626177397189.36,-4.04436457686002
1626177397192.69,-4.0423451712543
1626177397196.01,-4.04321063079961
1626177397199.34,-4.05229795602536
1626177397202.67,-4.06578470060643
1626177397205.99,-4.04559064454921
1626177397209.32,-4.06924653878767
1626177397212.65,-4.08114660753567
1626177397215.97,-4.117712273325
1626177397219.3,-4.14800335741083
1626177397222.63,-4.16863014324071
1626177397225.95,-4.19957032198552
1626177397229.28,-4.22784200046563
1626177397232.6,-4.22459652717072
1626177397235.93,-4.26361432833842
1626177397239.26,-4.28950599306893
1626177397242.58,-4.30306485927878
1626177397245.91,-4.32383588836621
1626177397249.24,-4.31662372548863
1626177397252.56,-4.33573595711422
1626177397255.89,-4.35686759434552
1626177397259.22,-4.36797432517699
1626177397262.54,-4.3730228391913
1626177397265.87,-4.38131682650051
1626177397269.2,-4.41016547801083
1626177397272.52,-4.39826540926283
1626177397275.85,-4.4191806816078
1626177397279.17,-4.40237634210305
1626177397282.5,-4.41182427547267
1626177397285.83,-4.40028481486855
1626177397289.15,-4.41470914062371
1626177397292.48,-4.41593520831289
1626177397295.81,-4.40872304543532
1626177397299.13,-4.41882007346393
1626177397302.46,-4.4186037085776
1626177397305.79,-4.41593520831289
1626177397309.11,-4.41867583020637
1626177397312.44,-4.41910855997903
1626177397315.77,-4.41002123475328
1626177397319.09,-4.41247337013166
1626177397322.42,-4.40331392327713
1626177397325.74,-4.41168003221512
1626177397329.07,-4.41903643835025
1626177397332.4,-4.39574115225567
1626177397335.72,-4.39501993596792
1626177397339.05,-4.42026250603944
1626177397342.38,-4.41744976251719
1626177397345.7,-4.41391580270717
1626177397349.03,-4.40187149070162
1626177397352.36,-4.40179936907284
1626177397355.68,-4.39898662555058
1626177397359.01,-4.40944426172307
1626177397362.34,-4.40713636960225
1626177397365.66,-4.395957517142
1626177397368.99,-4.40619878842816
1626177397372.31,-4.40100603115631
1626177397375.64,-4.39300053036219
1626177397378.97,-4.39999632835344
1626177397382.29,-4.41427641085105
1626177397385.62,-4.39970784183834
1626177397388.95,-4.40764122100368
1626177397392.27,-4.39631812528588
1626177397395.6,-4.40958850498062
1626177397398.93,-4.40273695024692
1626177397402.25,-4.39992420672467
1626177397405.58,-4.39956359858079
1626177397408.91,-4.40136663930018
1626177397412.23,-4.39754419297507
1626177397415.56,-4.42372434422068
1626177397418.88,-4.41615157319922
1626177397422.21,-4.40403513956489
1626177397425.54,-4.39732782808874
1626177397428.86,-4.38586048911339
1626177397432.19,-4.39523630085424
1626177397435.52,-4.41211276198778
1626177397438.84,-4.4046121125951
1626177397442.17,-4.39501993596792
1626177397445.5,-4.41333882967697
1626177397448.82,-4.42870073660621
1626177397452.15,-4.42834012846233
1626177397455.47,-4.39992420672467
1626177397458.8,-4.39689509831609
1626177397462.13,-4.39819328763405
1626177397465.45,-4.39307265199097
1626177397468.78,-4.40713636960225
1626177397472.11,-4.40115027441386
1626177397475.43,-4.42170493861496
1626177397478.76,-4.4072806128598
1626177397482.09,-4.42588799308395
1626177397485.41,-4.42047887092577
1626177397488.74,-4.44103353512687
1626177397492.07,-4.42105584395598
1626177397495.39,-4.42934983126519
1626177397498.72,-4.42942195289397
1626177397502.04,-4.42437343887966
1626177397505.37,-4.40872304543532
1626177397508.7,-4.41196851873023
1626177397512.02,-4.400140571611
1626177397515.35,-4.43086438546948
1626177397518.68,-4.41716127600208
1626177397522,-4.41954128975168
1626177397525.33,-4.40879516706409
1626177397528.66,-4.41038184289716
1626177397531.98,-4.42148857372863
1626177397535.31,-4.42523889842497
1626177397538.64,-4.40980486986695
1626177397541.96,-4.42112796558475
1626177397545.29,-4.43209045315867
1626177397548.61,-4.42581587145518
1626177397551.94,-4.43302803433276
1626177397555.27,-4.41023759963961
1626177397558.59,-4.4186037085776
1626177397561.92,-4.42588799308395
1626177397565.25,-4.41016547801083
1626177397568.57,-4.41593520831289
1626177397571.9,-4.41463701899493
1626177397575.23,-4.41088669429859
1626177397578.55,-4.41824310043372
1626177397581.88,-4.39444296293771
1626177397585.21,-4.41470914062371
1626177397588.53,-4.39790480111895
1626177397591.86,-4.38961081380973
1626177397595.18,-4.40634303168571
1626177397598.51,-4.39934723369446
1626177397601.84,-4.40273695024692
1626177397605.16,-4.40475635585265
1626177397608.49,-4.40403513956489
1626177397611.82,-4.40006844998222
1626177397615.14,-4.39220719244566
1626177397618.47,-4.38549988096951
1626177397621.8,-4.40223209884549
1626177397625.12,-4.41117518081369
1626177397628.45,-4.40663151820082
1626177397631.77,-4.39667873342976
1626177397635.1,-4.38867323263565
1626177397638.43,-4.38211016441705
1626177397641.75,-4.39898662555058
1626177397645.08,-4.36638764934393
1626177397648.41,-4.3730228391913
1626177397651.73,-4.35650698620164
1626177397655.06,-4.35463182385347
1626177397658.39,-4.33999113321199
1626177397661.71,-4.32181648276049
1626177397665.04,-4.30919519772472
1626177397668.37,-4.27904835689644
1626177397671.69,-4.24197783970569
1626177397675.02,-4.2178170940658
1626177397678.34,-4.22250499993622
1626177397681.67,-4.25070455678756
1626177397685,-4.26772526117864
1626177397688.32,-4.26801374769375
1626177397691.65,-4.28489020882728
1626177397694.98,-4.31510917128434
1626177397698.3,-4.32196072601804
1626177397701.63,-4.34150568741628
1626177397704.96,-4.39408235479383
1626177397708.28,-4.40475635585265
1626177397711.61,-4.40764122100368
1626177397714.94,-4.40086178789875
1626177397718.26,-4.39227931407444
1626177397721.59,-4.37857620460703
1626177397724.91,-4.39473144945281
1626177397728.24,-4.40692000471592
1626177397731.57,-4.41189639710145
1626177397734.89,-4.42660920937171
1626177397738.22,-4.43057589895438
1626177397741.55,-4.44665902217138
1626177397744.87,-4.44326930561892
1626177397748.2,-4.42675345262926
1626177397751.53,-4.43656199414277
1626177397754.85,-4.45322209038998
1626177397758.18,-4.42761891217457
1626177397761.51,-4.43108075035581
1626177397764.83,-4.43216257478745
1626177397768.16,-4.42898922312131
1626177397771.48,-4.42567162819763
1626177397774.81,-4.4346868317946
1626177397778.14,-4.42797952031845
1626177397781.46,-4.44500022470954
1626177397784.79,-4.43302803433276
1626177397788.12,-4.43822079160461
1626177397791.44,-4.47767132254497
1626177397794.77,-4.53868622048929
1626177397798.1,-4.6447050147897
1626177397801.42,-4.73867949708456
1626177397804.75,-4.77726456847961
1626177397808.07,-4.77358636541204
1626177397811.4,-4.62725158062596
1626177397814.73,-4.51142424481204
1626177397818.05,-4.1311268962773
1626177397821.38,-3.51650637585001
1626177397824.71,-3.1489024339798
1626177397828.03,-2.46843486648022
1626177397831.36,-2.37236885695086
1626177397834.69,-2.37936465494211
1626177397838.01,-2.72843333821694
1626177397841.34,-3.19960393900918
1626177397844.67,-3.45765512676896
1626177397847.99,-3.92781602475834
1626177397851.32,-4.29751149386305
1626177397854.64,-4.36227671650371
1626177397857.97,-4.29044357424302
1626177397861.3,-4.2681579909513
