ts,ecg
1626179489052.64,-12.9612663938125
1626179489055.97,-12.9725173679015
1626179489059.3,-13.0487499295175
1626179489062.62,-13.120006098748
1626179489065.95,-13.1494317232885
1626179489069.27,-13.1374595329117
1626179489072.6,-13.110990895151
1626179489075.93,-13.1234679369292
1626179489079.25,-13.1015429617814
1626179489082.58,-13.115823044279
1626179489085.91,-13.1150297063625
1626179489089.23,-13.105509651364
1626179489092.56,-13.0892822848895
1626179489095.89,-13.0540148084181
1626179489099.21,-13.0300704276646
1626179489102.54,-13.0526444974714
1626179489105.87,-13.1166885038243
1626179489109.19,-13.1979695794546
1626179489112.52,-13.2615087344061
1626179489115.84,-13.16407241393
1626179489119.17,-13.1300310051478
1626179489122.5,-13.1232515720429
1626179489125.82,-13.1378201410556
1626179489129.15,-13.144455330903
1626179489132.48,-13.1487826286295
1626179489135.8,-13.1546966021891
1626179489139.13,-13.1255594641637
1626179489142.46,-13.1013987185238
1626179489145.78,-13.1701306307472
1626179489149.11,-13.2567487069069
1626179489152.44,-13.3161769290181
1626179489155.76,-13.4064010866166
1626179489159.09,-13.4399376439974
1626179489162.41,-13.4175799390769
1626179489165.74,-13.31430176667
1626179489169.07,-13.06980944512
1626179489172.39,-12.876811966516
1626179489175.72,-12.3076280722175
1626179489179.05,-11.5114052905327
1626179489182.37,-11.1836846093756
1626179489185.7,-11.0544426506093
1626179489189.03,-11.1232466844614
1626179489192.35,-11.3264133127228
1626179489195.68,-11.8107100499523
1626179489199.01,-12.3184463165338
1626179489202.33,-12.5833490590273
1626179489205.66,-12.9931441537314
1626179489208.98,-13.1058702595079
1626179489212.31,-13.108755124659
1626179489215.64,-13.0606499982655
1626179489218.96,-13.0110303176678
1626179489222.29,-13.0155739802806
1626179489225.62,-13.0553851193649
1626179489228.94,-13.0574045249706
1626179489232.27,-13.0548081463347
1626179489235.6,-13.05920756569
1626179489238.92,-13.036056522853
1626179489242.25,-13.0333880225883
1626179489245.57,-13.0391577528903
1626179489248.9,-13.0333880225883
1626179489252.23,-13.027690413915
1626179489255.55,-13.0380759284587
1626179489258.88,-13.056322700539
1626179489262.21,-13.0261758597107
1626179489265.53,-13.0703142965215
1626179489268.86,-13.0497596323204
1626179489272.19,-13.0429080775867
1626179489275.51,-13.0373547121709
1626179489278.84,-13.0285558734603
1626179489282.17,-13.0285558734603
1626179489285.49,-13.0293492113768
1626179489288.82,-13.0380038068299
1626179489292.14,-13.0202618861511
1626179489295.47,-12.9960290188824
1626179489298.8,-13.0077848443729
1626179489302.12,-12.9961011405112
1626179489305.45,-12.9660264213117
1626179489308.78,-12.9650167185088
1626179489312.1,-12.9593191098355
1626179489315.43,-12.901261198671
1626179489318.76,-12.8821489670454
1626179489322.08,-12.8892890082942
1626179489325.41,-12.9559293932831
1626179489328.74,-13.0628136471288
1626179489332.06,-13.1047884350763
1626179489335.39,-13.0825749734133
1626179489338.71,-12.9971829649428
1626179489342.04,-12.9498711764659
1626179489345.37,-12.9268643768864
1626179489348.69,-12.9208061600692
1626179489352.02,-12.8947702520812
1626179489355.35,-12.8666428168586
1626179489358.67,-12.8692391954946
1626179489362,-12.8619549109882
1626179489365.33,-12.8426984361051
1626179489368.65,-12.8230092314493
1626179489371.98,-12.8154364604278
1626179489375.31,-12.7919248094469
1626179489378.63,-12.794160579939
1626179489381.96,-12.768413158466
1626179489385.28,-12.6898727047292
1626179489388.61,-12.6774677845797
1626179489391.94,-12.6579949448103
1626179489395.26,-12.6872042044645
1626179489398.59,-12.701195800447
1626179489401.92,-12.6993206380988
1626179489405.24,-12.6108995212197
1626179489408.57,-12.5751271933469
1626179489411.9,-12.5493076502451
1626179489415.22,-12.515915336122
1626179489418.55,-12.5228390124844
1626179489421.88,-12.5286087427865
1626179489425.2,-12.4921873202547
1626179489428.53,-12.4735078184018
1626179489431.85,-12.5200262689622
1626179489435.18,-12.5017073752531
1626179489438.51,-12.4960818882086
1626179489441.83,-12.5242093234312
1626179489445.16,-12.5286808644153
1626179489448.49,-12.5498125016466
1626179489451.81,-12.6221504953087
1626179489455.14,-12.6713374461338
1626179489458.47,-12.7003303409017
1626179489461.79,-12.7653840500574
1626179489465.12,-12.7991369723245
1626179489468.44,-12.7973339316051
1626179489471.77,-12.8511366666718
1626179489475.1,-12.8681573710629
1626179489478.42,-12.8745040743952
1626179489481.75,-12.8910920490136
1626179489485.08,-12.9205897951829
1626179489488.4,-12.9183540246909
1626179489491.73,-12.9412165810128
1626179489495.06,-12.9493663250645
1626179489498.38,-12.9477796492314
1626179489501.71,-12.9804507470668
1626179489505.04,-12.9837683419905
1626179489508.36,-12.9915574778983
1626179489511.69,-13.0199012780072
1626179489515.01,-12.9935047618752
1626179489518.34,-12.9963175053975
1626179489521.67,-13.0234352378172
1626179489524.99,-13.0261758597107
1626179489528.32,-13.0449274831924
1626179489531.65,-13.0601451468641
1626179489534.97,-13.0390135096328
1626179489538.3,-13.0209831024388
1626179489541.63,-13.0139151828188
1626179489544.95,-13.0319455900127
1626179489548.28,-13.0602893901216
1626179489551.61,-13.0988744615167
1626179489554.93,-13.0583421061447
1626179489558.26,-13.0664197285676
1626179489561.58,-13.041177158496
1626179489564.91,-13.0506250918657
1626179489568.24,-13.0306474006948
1626179489571.56,-13.0510578216383
1626179489574.89,-13.0274740490286
1626179489578.22,-13.0234352378172
1626179489581.54,-13.0034575466463
1626179489584.87,-12.9950914377083
1626179489588.2,-13.0135545746749
1626179489591.52,-13.0349746984213
1626179489594.85,-13.0330995360732
1626179489598.18,-13.0267528327409
1626179489601.5,-12.9743925302497
1626179489604.83,-12.9756907195676
1626179489608.15,-13.0077848443729
1626179489611.48,-13.0315849818689
1626179489614.81,-13.0452880913363
1626179489618.13,-13.0242285757337
1626179489621.46,-13.0212715889539
1626179489624.79,-13.0196849131209
1626179489628.11,-13.0023757222147
1626179489631.44,-13.0120400204706
1626179489634.77,-13.0175212642576
1626179489638.09,-13.0081454525167
1626179489641.42,-12.9863647206264
1626179489644.74,-12.9777101251733
1626179489648.07,-12.9690555297203
1626179489651.4,-12.9809555984683
1626179489654.72,-12.9821816661574
1626179489658.05,-12.9929999104738
1626179489661.38,-12.96494459688
1626179489664.7,-12.9606894207823
1626179489668.03,-12.9723010030152
1626179489671.36,-12.9738876788482
1626179489674.68,-12.9966059919126
1626179489678.01,-13.0083618174031
1626179489681.34,-13.0073521146002
1626179489684.66,-12.993576883504
1626179489687.99,-13.0063424117973
1626179489691.31,-13.0027363303585
1626179489694.64,-12.9912689913832
1626179489697.97,-12.997110843314
1626179489701.29,-12.972661611159
1626179489704.62,-12.9643676238498
1626179489707.95,-12.9820374228999
1626179489711.27,-12.9953799242234
1626179489714.6,-13.0041787629341
1626179489717.93,-12.9827586391877
1626179489721.25,-12.9982647893744
1626179489724.58,-12.9953799242234
1626179489727.91,-12.989393829035
1626179489731.23,-12.9371777698014
1626179489734.56,-12.9300377285525
1626179489737.88,-12.9309753097266
1626179489741.21,-12.9593912314643
1626179489744.54,-12.981676814756
1626179489747.86,-13.0080012092592
1626179489751.19,-12.9720846381288
1626179489754.52,-12.9503760278673
1626179489757.84,-12.9700652325231
1626179489761.17,-12.9860041124826
1626179489764.5,-13.0184588454317
1626179489767.82,-13.0353353065652
1626179489771.15,-13.0155739802806
1626179489774.48,-13.010958196039
1626179489777.8,-12.9850665313085
1626179489781.13,-12.9358795804834
1626179489784.45,-12.9381874726042
1626179489787.78,-12.9636464075621
1626179489791.11,-12.9803065038093
1626179489794.43,-13.0075684794865
1626179489797.76,-13.0076406011153
1626179489801.09,-12.9849944096797
1626179489804.41,-12.9886726127473
1626179489807.74,-12.9930720321026
1626179489811.07,-13.0068472631988
1626179489814.39,-13.0044672494492
1626179489817.72,-13.0137709395612
1626179489821.04,-12.9909083832393
1626179489824.37,-13.0043951278204
1626179489827.7,-12.9744646518784
1626179489831.02,-12.9828307608164
1626179489834.35,-12.9756907195676
1626179489837.68,-12.9906198967242
1626179489841,-12.9952356809659
1626179489844.33,-12.9911968697544
1626179489847.66,-12.9766283007417
1626179489850.98,-12.9708585704396
1626179489854.31,-12.9837683419905
1626179489857.64,-12.9618433668427
1626179489860.96,-12.9502317846098
1626179489864.29,-12.9391971754071
1626179489867.61,-12.9441014461638
1626179489870.94,-12.9416493107855
1626179489874.27,-12.9264316471138
1626179489877.59,-12.9639348940772
1626179489880.92,-12.9947308295644
1626179489884.25,-12.9601845693808
1626179489887.57,-12.9609057856686
1626179489890.9,-12.9446062975653
1626179489894.23,-12.8667149384874
1626179489897.55,-12.8589979242084
1626179489900.88,-12.8551033562545
1626179489904.21,-12.8658494789421
1626179489907.53,-12.8324571648189
1626179489910.86,-12.8284183536075
1626179489914.18,-12.8545985048531
1626179489917.51,-12.8601518702688
1626179489920.84,-12.8572670051178
1626179489924.16,-12.8667149384874
1626179489927.49,-12.8553918427696
1626179489930.82,-12.8587094376933
1626179489934.14,-12.8659216005709
1626179489937.47,-12.8817162372728
1626179489940.8,-12.8928229681042
1626179489944.12,-12.9325619855597
1626179489947.45,-12.9569390960859
1626179489950.78,-12.9665312727131
1626179489954.1,-12.9693440162354
1626179489957.43,-12.9639348940772
1626179489960.75,-12.960761542411
1626179489964.08,-12.9759792060827
1626179489967.41,-12.9756907195676
1626179489970.73,-12.9720125165001
1626179489974.06,-12.9880956397171
1626179489977.39,-12.981676814756
1626179489980.71,-12.9623482182441
1626179489984.04,-12.978791949605
1626179489987.37,-13.0079290876304
1626179489990.69,-12.9967502351702
1626179489994.02,-13.0005005598665
1626179489997.34,-13.0047557359643
1626179490000.67,-12.9883120046034
1626179490004,-12.9630694345319
1626179490007.32,-12.9356632155971
1626179490010.65,-12.9394135402934
1626179490013.98,-12.9970387216853
1626179490017.3,-13.0403838205795
1626179490020.63,-13.0633184985302
1626179490023.96,-13.0263201029682
1626179490027.28,-13.0602172684929
1626179490030.61,-13.0995956778044
1626179490033.94,-13.2164327164212
1626179490037.26,-13.2896361696286
1626179490040.59,-13.3272836598496
1626179490043.91,-13.287905250538
1626179490047.24,-13.161187548779
1626179490050.57,-13.0582699845159
1626179490053.89,-12.7192983292697
1626179490057.22,-12.1354737443297
1626179490060.55,-11.756113976969
1626179490063.87,-11.1236794142341
1626179490067.2,-10.9687621556237
1626179490070.53,-10.9554196543002
1626179490073.85,-11.2589074681887
1626179490077.18,-11.6376181408904
1626179490080.51,-11.8655224878219
1626179490083.83,-12.4275663408716
1626179490087.16,-12.8727010336758
1626179490090.48,-13.0010775328967
1626179490093.81,-13.038941388004
1626179490097.14,-12.9256383091972
1626179490100.46,-12.9328504720748
1626179490103.79,-12.8959963197704
1626179490107.12,-12.8980878470049
1626179490110.44,-12.9232582954476
1626179490113.77,-12.9274413499166
1626179490117.1,-12.9187146328347
1626179490120.42,-12.9183540246909
1626179490123.75,-12.9276577148029
1626179490127.08,-12.9288116608634
1626179490130.4,-12.9221043493872
1626179490133.73,-12.9247007280231
1626179490137.05,-12.9234025387052
1626179490140.38,-12.9105648887831
1626179490143.71,-12.9290280257497
1626179490147.03,-12.9201570654103
1626179490150.36,-12.9315522827568
1626179490153.69,-12.9297492420374
1626179490157.01,-12.9056606180263
1626179490160.34,-12.8848895889389
1626179490163.67,-12.9034969691631
1626179490166.99,-12.9057327396551
1626179490170.32,-12.9086176048061
1626179490173.65,-12.8659216005709
1626179490176.97,-12.8700325334111
1626179490180.3,-12.8553918427696
1626179490183.62,-12.8330341378491
1626179490186.95,-12.8442851119381
1626179490190.28,-12.8531560722776
1626179490193.6,-12.848179679892
1626179490196.93,-12.8562573023149
1626179490200.26,-12.8786871288642
1626179490203.58,-12.8864041431432
1626179490206.91,-12.8804901695836
1626179490210.24,-12.8535888020502
1626179490213.56,-12.8600076270113
1626179490216.89,-12.827264407547
1626179490220.21,-12.8064212568308
1626179490223.54,-12.7971896883475
1626179490226.87,-12.8011563779302
1626179490230.19,-12.8059885270582
1626179490233.52,-12.7703604424429
1626179490236.85,-12.767114969148
1626179490240.17,-12.7478584942649
1626179490243.5,-12.7247795730566
1626179490246.83,-12.7159086127172
1626179490250.15,-12.6834538797681
1626179490253.48,-12.6967242594629
1626179490256.81,-12.6859781367753
1626179490260.13,-12.6479700384104
1626179490263.46,-12.6507827819327
1626179490266.78,-12.6455900246608
1626179490270.11,-12.6189771436426
1626179490273.44,-12.5755599231195
1626179490276.76,-12.5516876639948
1626179490280.09,-12.5462064202078
1626179490283.42,-12.5089916597595
1626179490286.74,-12.4957212800647
1626179490290.07,-12.4833163599153
1626179490293.4,-12.4554774112078
1626179490296.72,-12.4512222351101
1626179490300.05,-12.4137911097754
1626179490303.38,-12.3871061071284
1626179490306.7,-12.3711672271689
1626179490310.03,-12.3620799019432
1626179490313.35,-12.3826345661443
1626179490316.68,-12.374701186979
1626179490320.01,-12.37051813251
1626179490323.33,-12.3987176893613
1626179490326.66,-12.4114832176546
1626179490329.99,-12.4295857464773
1626179490333.31,-12.4711278046522
1626179490336.64,-12.5028613213135
1626179490339.97,-12.5518319072523
1626179490343.29,-12.6101783049319
1626179490346.62,-12.6322475233373
1626179490349.95,-12.6989600299549
1626179490353.27,-12.6773235413222
1626179490356.6,-12.6966521378341
1626179490359.92,-12.6965800162053
1626179490363.25,-12.7195868157848
1626179490366.58,-12.7435311965384
1626179490369.9,-12.746848791462
1626179490373.23,-12.7598306846417
1626179490376.56,-12.8172395011472
1626179490379.88,-12.8408232737569
1626179490383.21,-12.8516415180733
1626179490386.54,-12.8498384773539
1626179490389.86,-12.8558245725423
1626179490393.19,-12.8615943028443
1626179490396.51,-12.8324571648189
1626179490399.84,-12.8182492039501
1626179490403.17,-12.8468093689453
1626179490406.49,-12.8848174673101
1626179490409.82,-12.8780380342052
1626179490413.15,-12.8698161685248
1626179490416.47,-12.8496221124675
1626179490419.8,-12.8691670738658
1626179490423.13,-12.8717634525017
1626179490426.45,-12.8819326021591
1626179490429.78,-12.9099879157529
1626179490433.11,-12.8815719940152
1626179490436.43,-12.8706095064413
1626179490439.76,-12.8817162372728
1626179490443.08,-12.8992417930653
1626179490446.41,-12.8967896576869
1626179490449.74,-12.9163346190851
1626179490453.06,-12.9117188348435
1626179490456.39,-12.9065260775716
1626179490459.72,-12.888712035264
1626179490463.04,-12.8745040743952
1626179490466.37,-12.8825816968181
1626179490469.7,-12.8703210199262
1626179490473.02,-12.8517857613308
1626179490476.35,-12.8491172610661
1626179490479.68,-12.8444293551957
1626179490483,-12.8575554916329
1626179490486.33,-12.8686622224643
1626179490489.65,-12.8491172610661
1626179490492.98,-12.8556803292847
1626179490496.31,-12.8510645450431
1626179490499.63,-12.8526512208761
1626179490502.96,-12.8654888707982
1626179490506.29,-12.8538772885653
1626179490509.61,-12.8861156566281
1626179490512.94,-12.8907314408697
1626179490516.27,-12.8820768454166
1626179490519.59,-12.8608009649278
1626179490522.92,-12.8568342753451
1626179490526.25,-12.8758022637132
1626179490529.57,-12.8618106677306
1626179490532.9,-12.8568342753451
1626179490536.22,-12.8691670738658
1626179490539.55,-12.8685179792068
1626179490542.88,-12.867796762919
1626179490546.2,-12.8381547734922
1626179490549.53,-12.8548869913682
1626179490552.86,-12.8460881526575
1626179490556.18,-12.8522906127322
1626179490559.51,-12.8602961135264
1626179490562.84,-12.8533003155351
1626179490566.16,-12.8217110421313
1626179490569.49,-12.8377941653483
1626179490572.81,-12.8128400817919
1626179490576.14,-12.8160855550868
1626179490579.47,-12.8045460944827
1626179490582.79,-12.8426984361051
1626179490586.12,-12.8801295614397
1626179490589.45,-12.9135939971917
1626179490592.77,-12.914459456737
1626179490596.1,-12.9255661875684
1626179490599.43,-12.9047230368522
1626179490602.75,-12.8751531690542
1626179490606.08,-12.8850338321965
1626179490609.41,-12.8907314408697
1626179490612.73,-12.8892168866655
1626179490616.06,-12.8551754778833
1626179490619.38,-12.8701767766686
1626179490622.71,-12.8919575085589
1626179490626.04,-12.878759250493
1626179490629.36,-12.8539494101941
1626179490632.69,-12.8539494101941
1626179490636.02,-12.8318080701599
1626179490639.34,-12.8259662182291
1626179490642.67,-12.8326014080765
1626179490646,-12.8574112483753
1626179490649.32,-12.866210087086
1626179490652.65,-12.8636858300788
1626179490655.98,-12.8758022637132
1626179490659.3,-12.8972223874596
1626179490662.63,-12.9120073213586
1626179490665.95,-12.9070309289731
1626179490669.28,-12.9044345503371
1626179490672.61,-12.8952751034826
1626179490675.93,-12.9111418618133
1626179490679.26,-12.9046509152235
1626179490682.59,-12.903208482648
1626179490685.91,-12.8799131965534
1626179490689.24,-12.8776053044325
1626179490692.57,-12.8892890082942
1626179490695.89,-12.8926787248467
1626179490699.22,-12.8734222499636
1626179490702.55,-12.8824374535605
1626179490705.87,-12.8801295614397
1626179490709.2,-12.8693113171233
1626179490712.52,-12.8426984361051
1626179490715.85,-12.8297886645542
1626179490719.18,-12.8432754091353
1626179490722.5,-12.8715470876154
1626179490725.83,-12.9247728496519
1626179490729.16,-12.9391250537783
1626179490732.48,-12.9451832705955
1626179490735.81,-12.90191029333
1626179490739.14,-12.9189309977211
1626179490742.46,-12.9092666994651
1626179490745.79,-12.89837633352
1626179490749.11,-12.8983042118912
1626179490752.44,-12.8853223187116
1626179490755.77,-12.8579882214055
1626179490759.09,-12.8601518702688
1626179490762.42,-12.816662528117
1626179490765.75,-12.7617058469899
1626179490769.07,-12.753628224567
1626179490772.4,-12.687348447722
1626179490775.73,-12.6830932716242
1626179490779.05,-12.7144661801417
1626179490782.38,-12.7323523440781
1626179490785.71,-12.6957866782888
1626179490789.03,-12.6924690833651
1626179490792.36,-12.7312705196465
1626179490795.68,-12.79351148528
1626179490799.01,-12.7965405936886
1626179490802.34,-12.8505596936416
1626179490805.66,-12.8954193467402
1626179490808.99,-12.9136661188204
1626179490812.32,-12.9171279570017
1626179490815.64,-12.883879886136
1626179490818.97,-12.8926066032179
1626179490822.3,-12.8853944403403
1626179490825.62,-12.9048672801098
1626179490828.95,-12.9239073901066
1626179490832.28,-12.9295328771511
1626179490835.6,-12.907391537117
1626179490838.93,-12.9040739421933
1626179490842.25,-12.8826538184469
1626179490845.58,-12.9001072526106
1626179490848.91,-12.8741434662513
1626179490852.23,-12.894193279051
1626179490855.56,-12.8882793054914
1626179490858.89,-12.8931835762481
1626179490862.21,-12.9099157941241
1626179490865.54,-12.9255661875684
1626179490868.87,-12.9403511214675
1626179490872.19,-12.9236189035915
1626179490875.52,-12.9197964572664
1626179490878.85,-12.9177770516607
1626179490882.17,-12.9140267269643
1626179490885.5,-12.9254940659397
1626179490888.82,-12.935374729082
1626179490892.15,-12.9561457581694
1626179490895.48,-12.9933605186177
1626179490898.8,-13.1145969765898
1626179490902.13,-13.2020083906661
1626179490905.46,-13.2513395847487
1626179490908.78,-13.2623741939514
1626179490912.11,-13.1182751796574
1626179490915.44,-13.0385807798601
1626179490918.76,-12.7229044107085
1626179490922.09,-12.1221312430061
1626179490925.42,-11.7315926231852
1626179490928.74,-10.9698439800553
1626179490932.07,-10.7552821344474
1626179490935.39,-10.7483584580849
1626179490938.72,-11.0335273782644
1626179490942.05,-11.5160210747744
1626179490945.37,-11.7662831266264
1626179490948.7,-12.2911122192278
1626179490952.03,-12.7262941272609
1626179490955.35,-12.8477469501194
1626179490958.68,-12.872628912047
1626179490962.01,-12.8224322584191
1626179490965.33,-12.8345486920534
1626179490968.66,-12.8015169860741
1626179490971.98,-12.8361353678865
1626179490975.31,-12.846593004059
1626179490978.64,-12.8258940966003
1626179490981.96,-12.8547427481106
1626179490985.29,-12.8534445587927
1626179490988.62,-12.8548148697394
1626179490991.94,-12.8853944403403
1626179490995.27,-12.8731337634484
1626179490998.6,-12.8660658438284
1626179491001.92,-12.8511366666718
1626179491005.25,-12.8577718565192
1626179491008.58,-12.8758022637132
1626179491011.9,-12.8665706952299
1626179491015.23,-12.8624597623896
1626179491018.55,-12.8457275445136
1626179491021.88,-12.8438523821655
1626179491025.21,-12.8467372473165
1626179491028.53,-12.8438523821655
1626179491031.86,-12.8431311658777
1626179491035.19,-12.8458717877712
1626179491038.51,-12.8245959072823
1626179491041.84,-12.8120467438754
1626179491045.17,-12.8141382711099
1626179491048.49,-12.8213504339874
1626179491051.82,-12.8080079326639
1626179491055.15,-12.8090897570955
1626179491058.47,-12.7998581886122
1626179491061.8,-12.7864435656599
1626179491065.12,-12.783847187024
1626179491068.45,-12.7781495783507
1626179491071.78,-12.792213295962
1626179491075.1,-12.7948096745979
1626179491078.43,-12.7832702139938
1626179491081.76,-12.7778610918356
1626179491085.08,-12.7725240913062
1626179491088.41,-12.7602634144143
1626179491091.74,-12.7092734228699
1626179491095.06,-12.6916757454486
1626179491098.39,-12.6603749585599
1626179491101.72,-12.674799284315
1626179491105.04,-12.6877090558659
1626179491108.37,-12.7041527872268
1626179491111.69,-12.6913872589335
1626179491115.02,-12.6682362160964
1626179491118.35,-12.6727077570805
1626179491121.67,-12.6441475920853
1626179491125,-12.6101783049319
1626179491128.33,-12.5917872895941
1626179491131.65,-12.5833490590273
1626179491134.98,-12.5332245270281
1626179491138.31,-12.5096407544185
1626179491141.63,-12.4975243207841
1626179491144.96,-12.4694690071903
1626179491148.28,-12.4485537348454
1626179491151.61,-12.4405482340513
1626179491154.94,-12.4197772049638
1626179491158.26,-12.4067953117842
1626179491161.59,-12.396554040498
1626179491164.92,-12.3389288591062
1626179491168.24,-12.338351886076
1626179491171.57,-12.3091426264218
1626179491174.9,-12.2816642858582
1626179491178.22,-12.2611817432859
1626179491181.55,-12.2847655158955
1626179491184.88,-12.3179414651324
1626179491188.2,-12.3511174143693
1626179491191.53,-12.3675611457302
1626179491194.85,-12.3915776481125
1626179491198.18,-12.4471113022699
1626179491201.51,-12.4744453995759
1626179491204.83,-12.5443312578596
1626179491208.16,-12.5961145873206
1626179491211.49,-12.6036152367133
1626179491214.81,-12.6294347798151
1626179491218.14,-12.6688853107554
1626179491221.47,-12.687348447722
1626179491224.79,-12.6980224487808
1626179491228.12,-12.7540609543396
1626179491231.45,-12.7750483483134
1626179491234.77,-12.7894005524398
1626179491238.1,-12.8103879464135
1626179491241.42,-12.7874532684628
1626179491244.75,-12.7777168485781
1626179491248.08,-12.799281215582
1626179491251.4,-12.8161576767156
1626179491254.73,-12.8075752028913
1626179491258.06,-12.8419050981885
1626179491261.38,-12.8414723684159
1626179491264.71,-12.8408232737569
1626179491268.04,-12.8377941653483
1626179491271.36,-12.8345486920534
1626179491274.69,-12.8201243662982
1626179491278.02,-12.8257498533428
1626179491281.34,-12.8512809099294
1626179491284.67,-12.8997466444667
1626179491287.99,-12.9368892832862
1626179491291.32,-12.9296771204087
1626179491294.65,-12.9065981992004
1626179491297.97,-12.8939769141647
1626179491301.3,-12.8987369416639
1626179491304.63,-12.8950587385963
1626179491307.95,-12.8840962510224
1626179491311.28,-12.8706095064413
1626179491314.61,-12.8593585323523
1626179491317.93,-12.8745040743952
1626179491321.26,-12.8715470876154
1626179491324.58,-12.8629646137911
1626179491327.91,-12.886476264772
1626179491331.24,-12.8835913996209
1626179491334.56,-12.8657773573133
1626179491337.89,-12.8360632462577
1626179491341.22,-12.8270480426607
1626179491344.54,-12.8276250156909
1626179491347.87,-12.8182492039501
1626179491351.2,-12.8154364604278
1626179491354.52,-12.8438523821655
1626179491357.85,-12.8664264519723
1626179491361.18,-12.8746483176527
1626179491364.5,-12.9006842256408
1626179491367.83,-12.883879886136
1626179491371.15,-12.89837633352
1626179491374.48,-12.8932556978769
1626179491377.81,-12.8928229681042
1626179491381.13,-12.9002514958681
1626179491384.46,-12.8709701145852
1626179491387.79,-12.8661379654572
1626179491391.11,-12.8837356428785
1626179491394.44,-12.8679410061766
1626179491397.77,-12.8532281939063
1626179491401.09,-12.8338995973944
1626179491404.42,-12.857194883489
1626179491407.75,-12.8621712758745
1626179491411.07,-12.8632531003062
1626179491414.4,-12.8132728115645
1626179491417.72,-12.8098109733833
1626179491421.05,-12.8098109733833
1626179491424.38,-12.8362074895152
1626179491427.7,-12.8381547734922
1626179491431.03,-12.8550312346257
1626179491434.36,-12.8615221812155
1626179491437.68,-12.8716192092442
1626179491441.01,-12.8712586011003
1626179491444.34,-12.8850338321965
1626179491447.66,-12.8914526571575
1626179491450.99,-12.8767398448872
1626179491454.32,-12.8752974123117
1626179491457.64,-12.850776058528
1626179491460.97,-12.8602961135264
1626179491464.29,-12.8742155878801
1626179491467.62,-12.8777495476901
1626179491470.95,-12.899025428179
1626179491474.27,-12.8669313033737
1626179491477.6,-12.8665706952299
1626179491480.93,-12.8553918427696
1626179491484.25,-12.8099552166409
1626179491487.58,-12.7964684720598
1626179491490.91,-12.8149316090264
1626179491494.23,-12.8998187660955
1626179491497.56,-12.8938326709071
1626179491500.89,-12.9336438099913
1626179491504.21,-12.8908756841273
1626179491507.54,-12.8505596936416
1626179491510.86,-12.830509880842
1626179491514.19,-12.8635415868213
1626179491517.52,-12.8767398448872
1626179491520.84,-12.8894332515518
1626179491524.17,-12.9441735677926
1626179491527.5,-12.8939769141647
1626179491530.82,-12.9006842256408
1626179491534.15,-12.8840962510224
1626179491537.48,-12.8691670738658
1626179491540.8,-12.8597191404962
1626179491544.13,-12.8695276820097
1626179491547.45,-12.8799853181822
1626179491550.78,-12.8996745228379
1626179491554.11,-12.8656331140558
1626179491557.43,-12.871979817388
1626179491560.76,-12.8705373848125
1626179491564.09,-12.8706095064413
1626179491567.41,-12.8636858300788
1626179491570.74,-12.8773889395462
1626179491574.07,-12.8939047925359
1626179491577.39,-12.8916690220438
1626179491580.72,-12.8780380342052
1626179491584.05,-12.9078963885184
1626179491587.37,-12.9128727809039
1626179491590.7,-12.9222485926448
1626179491594.02,-12.9203734302966
1626179491597.35,-12.9153249162823
1626179491600.68,-12.9358795804834
1626179491604,-12.8889284001503
1626179491607.33,-12.8764513583721
1626179491610.66,-12.8326735297052
1626179491613.98,-12.8307262457283
1626179491617.31,-12.8388038681512
1626179491620.64,-12.8671476682601
1626179491623.96,-12.8840241293936
1626179491627.29,-12.8682294926917
1626179491630.62,-12.8708258713276
1626179491633.94,-12.8491893826949
1626179491637.27,-12.8525790992473
1626179491640.59,-12.8382990167497
1626179491643.92,-12.8330341378491
1626179491647.25,-12.7848568898269
1626179491650.57,-12.7508154810447
1626179491653.9,-12.7791592811536
1626179491657.23,-12.7947375529692
1626179491660.55,-12.8090897570955
1626179491663.88,-12.8192589067529
1626179491667.21,-12.7958914990296
1626179491670.53,-12.7846405249406
1626179491673.86,-12.7980551478929
1626179491677.19,-12.8504875720129
1626179491680.51,-12.9196522140088
1626179491683.84,-12.9163346190851
1626179491687.16,-12.9505923927536
1626179491690.49,-12.9673967322584
1626179491693.82,-12.9663149078268
1626179491697.14,-12.9398462700661
1626179491700.47,-12.9477075276026
1626179491703.8,-12.944678419194
1626179491707.12,-12.9431638649897
1626179491710.45,-12.9730943409317
1626179491713.78,-12.9583094070327
1626179491717.1,-12.9565063663133
1626179491720.43,-12.9257825524548
1626179491723.75,-12.9249892145382
1626179491727.08,-12.9544869607075
1626179491730.41,-12.9517463388141
1626179491733.73,-12.9749695032799
1626179491737.06,-12.9924950590724
1626179491740.39,-12.9945865863069
1626179491743.71,-13.0033133033888
1626179491747.04,-13.0254546434229
1626179491750.37,-13.0139873044476
1626179491753.69,-13.0054048306233
1626179491757.02,-13.0418983747838
1626179491760.35,-13.0217043187266
1626179491763.67,-13.0325946846717
1626179491767,-13.0497596323204
1626179491770.32,-13.1281558427996
1626179491773.65,-13.171789428209
1626179491776.98,-13.266989978193
1626179491780.3,-13.3340630929545
1626179491783.63,-13.3346400659847
1626179491786.96,-13.2007102013481
1626179491790.28,-13.0176655075151
1626179491793.61,-12.8482518015208
1626179491796.94,-12.319672384223
1626179491800.26,-11.5499903619278
1626179491803.59,-11.1554850525242
1626179491806.92,-10.8594978880284
1626179491810.24,-10.9276528272215
1626179491813.57,-11.107956899161
1626179491816.89,-11.6584612916066
1626179491820.22,-12.1349688929282
1626179491823.55,-12.3802545523947
1626179491826.87,-12.8056279189143
1626179491830.2,-12.9868695720279
1626179491833.53,-12.9940817349054
1626179491836.85,-12.9468420680573
1626179491840.18,-12.916695227229
1626179491843.51,-12.9188588760923
1626179491846.83,-12.9229698089325
1626179491850.16,-12.9307589448403
1626179491853.49,-12.9355189723395
1626179491856.81,-12.9211667682131
1626179491860.14,-12.9449669057091
1626179491863.46,-12.9398462700661
1626179491866.79,-12.928595295977
1626179491870.12,-12.9212388898419
1626179491873.44,-12.953693622791
1626179491876.77,-12.9632136777894
1626179491880.1,-12.9696325027505
1626179491883.42,-12.9972550865716
1626179491886.75,-12.9883120046034
1626179491890.08,-12.9919180860422
1626179491893.4,-12.9806671119532
1626179491896.73,-12.9572997042298
1626179491900.05,-12.9808834768395
1626179491903.38,-12.9819653012711
1626179491906.71,-12.9862204773689
1626179491910.03,-12.9832634905891
1626179491913.36,-12.9429475001034
1626179491916.69,-12.9492942034357
1626179491920.01,-12.952395433473
1626179491923.34,-12.9496548115796
1626179491926.67,-12.9469141896861
1626179491929.99,-12.9414329458991
1626179491933.32,-12.9283789310907
1626179491936.65,-12.9450390273379
1626179491939.97,-12.9226092007886
1626179491943.3,-12.9162624974564
1626179491946.62,-12.9058048612839
1626179491949.95,-12.9065260775716
1626179491953.28,-12.9189309977211
1626179491956.6,-12.8919575085589
1626179491959.93,-12.9232582954476
1626179491963.26,-12.8790477370081
1626179491966.58,-12.8216389205025
1626179491969.91,-12.7914199580455
1626179491973.24,-12.8175279876623
1626179491976.56,-12.850776058528
1626179491979.89,-12.858493072807
1626179491983.22,-12.8796247100383
1626179491986.54,-12.8875580892036
1626179491989.87,-12.8660658438284
1626179491993.19,-12.8359911246289
1626179491996.52,-12.8367844625455
1626179491999.85,-12.8375056788332
1626179492003.17,-12.7868762954326
1626179492006.5,-12.7387711690392
1626179492009.83,-12.7337947766536
1626179492013.15,-12.6916036238198
1626179492016.48,-12.6701113784446
1626179492019.81,-12.6491239844708
1626179492023.13,-12.6232323197403
1626179492026.46,-12.6141449945146
1626179492029.79,-12.6116928591362
1626179492033.11,-12.584430883459
1626179492036.44,-12.5777956936116
1626179492039.76,-12.5835654239136
1626179492043.09,-12.5338015000584
1626179492046.42,-12.528752986044
1626179492049.74,-12.5402924466482
1626179492053.07,-12.5460621769502
1626179492056.4,-12.5129583493422
1626179492059.72,-12.5303396618771
1626179492063.05,-12.571232625393
1626179492066.38,-12.6375124022379
1626179492069.7,-12.6731404868532
1626179492073.03,-12.740429966501
1626179492076.35,-12.7411511827888
1626179492079.68,-12.7694949828976
1626179492083.01,-12.811830378989
1626179492086.33,-12.8350535434548
1626179492089.66,-12.8673640331464
1626179492092.99,-12.9023430231026
1626179492096.31,-12.9595354747218
1626179492099.64,-12.9569390960859
1626179492102.97,-12.9856435043387
1626179492106.29,-12.9909805048681
1626179492109.62,-12.9968944784277
1626179492112.95,-13.0051884657369
1626179492116.27,-13.0486056862599
1626179492119.6,-13.0631021336439
1626179492122.92,-13.0775985810278
1626179492126.25,-13.0879119739428
1626179492129.58,-13.1155345577639
1626179492132.9,-13.1290934239737
1626179492136.23,-13.1422916820397
1626179492139.56,-13.1438783578728
1626179492142.88,-13.150225061205
1626179492146.21,-13.1671015223386
1626179492149.54,-13.1330601135564
1626179492152.86,-13.1496480881748
1626179492156.19,-13.1640002923012
1626179492159.52,-13.1489989935158
1626179492162.84,-13.1751791447615
1626179492166.17,-13.1752512663902
1626179492169.49,-13.1438783578728
1626179492172.82,-13.1518117370381
1626179492176.15,-13.1678227386263
1626179492179.47,-13.1813816048362
1626179492182.8,-13.1902525651756
1626179492186.13,-13.1879446730548
1626179492189.45,-13.1453207904483
1626179492192.78,-13.1554178184769
1626179492196.11,-13.159240264802
1626179492199.43,-13.1768379422233
1626179492202.76,-13.1999889850603
1626179492206.09,-13.2071290263091
1626179492209.41,-13.2020805122948
1626179492212.74,-13.1875119432821
1626179492216.06,-13.1898919570317
1626179492219.39,-13.1785688613139
1626179492222.72,-13.2183800003982
1626179492226.04,-13.2144133108155
1626179492229.37,-13.1779918882837
1626179492232.7,-13.1689766846867
1626179492236.02,-13.159240264802
1626179492239.35,-13.1505856693489
1626179492242.68,-13.1689766846867
1626179492246,-13.2057587153624
1626179492249.33,-13.1870792135095
1626179492252.66,-13.1612596704077
1626179492255.98,-13.1808767534347
1626179492259.31,-13.201719904151
1626179492262.63,-13.2066962965365
1626179492265.96,-13.2255921632757
1626179492269.29,-13.2283327851692
1626179492272.61,-13.2266739877074
1626179492275.94,-13.2143411891867
1626179492279.27,-13.2113842024069
1626179492282.59,-13.1797949290031
1626179492285.92,-13.1676784953688
1626179492289.25,-13.1961665387352
1626179492292.57,-13.2260970146772
1626179492295.9,-13.2070569046804
1626179492299.22,-13.193353795213
1626179492302.55,-13.2141248243004
1626179492305.88,-13.2275394472527
1626179492309.2,-13.2298473393735
1626179492312.53,-13.2227072981247
1626179492315.86,-13.224870946988
1626179492319.18,-13.2250151902455
1626179492322.51,-13.2295588528584
1626179492325.84,-13.22003879786
1626179492329.16,-13.2170096894514
1626179492332.49,-13.2083550939983
1626179492335.82,-13.1804440236621
1626179492339.14,-13.1606105757488
1626179492342.47,-13.190757416577
1626179492345.79,-13.2088599453998
1626179492349.12,-13.2922325482646
1626179492352.45,-13.3225957539792
1626179492355.77,-13.3048538333003
1626179492359.1,-13.3041326170126
1626179492362.43,-13.2963434811048
1626179492365.75,-13.2884822235682
1626179492369.08,-13.3211533214037
1626179492372.41,-13.3176193615936
1626179492375.73,-13.3116332664053
1626179492379.06,-13.3053586847018
1626179492382.39,-13.2728318301239
1626179492385.71,-13.2883379803107
1626179492389.04,-13.2968483325062
1626179492392.36,-13.3000938058011
1626179492395.69,-13.2796833848576
1626179492399.02,-13.2804046011453
1626179492402.34,-13.2881937370531
1626179492405.67,-13.3000938058011
1626179492409,-13.3143738882987
1626179492412.32,-13.32136968629
1626179492415.65,-13.3005265355738
1626179492418.98,-13.3256969840165
1626179492422.3,-13.3338467280682
1626179492425.63,-13.3098302256859
1626179492428.96,-13.3091090093981
1626179492432.28,-13.31430176667
1626179492435.61,-13.2972810622789
1626179492438.93,-13.3234612135245
1626179492442.26,-13.330384889887
1626179492445.59,-13.3600990009426
1626179492448.91,-13.3672390421914
1626179492452.24,-13.3496413647701
1626179492455.57,-13.3262739570467
1626179492458.89,-13.3013198734903
1626179492462.22,-13.3099023473146
1626179492465.55,-13.3582238385944
1626179492468.87,-13.3833942870372
1626179492472.2,-13.3985398290801
1626179492475.52,-13.3699075424561
1626179492478.85,-13.3782015297653
1626179492482.18,-13.3608202172303
1626179492485.5,-13.3525262299211
1626179492488.83,-13.3580795953369
1626179492492.16,-13.3378134176509
1626179492495.48,-13.3296636735992
1626179492498.81,-13.3453140670436
1626179492502.14,-13.3428619316652
1626179492505.46,-13.2976416704228
1626179492508.79,-13.2506183684609
1626179492512.12,-13.2488153277415
1626179492515.44,-13.1961665387352
1626179492518.77,-13.1749627798751
1626179492522.09,-13.1875840649109
1626179492525.42,-13.1940750115007
1626179492528.75,-13.1819585778664
1626179492532.07,-13.1824634292678
1626179492535.4,-13.1942192547583
1626179492538.73,-13.2435504488409
1626179492542.05,-13.2800439930015
1626179492545.38,-13.4071944245332
1626179492548.71,-13.4358267111572
1626179492552.03,-13.4503231585411
1626179492555.36,-13.4348891299831
1626179492558.69,-13.4216187502883
1626179492562.01,-13.4036604647232
1626179492565.34,-13.4102956545705
1626179492568.66,-13.4335909406651
1626179492571.99,-13.4336630622939
1626179492575.32,-13.413685371123
1626179492578.64,-13.3965925451031
1626179492581.97,-13.3993331669966
1626179492585.3,-13.4174356958193
1626179492588.62,-13.4446255498678
1626179492591.95,-13.4639541463797
1626179492595.28,-13.4450582796405
1626179492598.6,-13.4585450242215
1626179492601.93,-13.4478710231627
1626179492605.26,-13.4472940501325
1626179492608.58,-13.4472219285037
1626179492611.91,-13.4749887555824
1626179492615.23,-13.4729693499767
1626179492618.56,-13.469002660394
1626179492621.89,-13.4812633372859
1626179492625.21,-13.4758542151277
1626179492628.54,-13.4569583483885
1626179492631.87,-13.4395770358535
1626179492635.19,-13.4366921707025
1626179492638.52,-13.4653244573265
1626179492641.85,-13.5991822003343
1626179492645.17,-13.6871705874408
1626179492648.5,-13.7396751331896
1626179492651.82,-13.8161240596919
1626179492655.15,-13.7280635509567
1626179492658.48,-13.6449073129782
1626179492661.8,-13.3795718407121
1626179492665.13,-12.9165509839715
1626179492668.46,-12.59438366823
1626179492671.78,-11.9164403577376
1626179492675.11,-11.5693910800685
1626179492678.44,-11.5282096300375
1626179492681.76,-11.6434599928212
1626179492685.09,-12.0578708717669
1626179492688.42,-12.2701248252541
1626179492691.74,-12.7508154810447
1626179492695.07,-13.2846597772431
1626179492698.39,-13.4159932632438
1626179492701.72,-13.4547946995252
1626179492705.05,-13.4540013616087
1626179492708.37,-13.4436879686937
1626179492711.7,-13.4289751564235
1626179492715.03,-13.4157768983575
1626179492718.35,-13.4330139676349
1626179492721.68,-13.4465728338448
1626179492725.01,-13.4552995509266
1626179492728.33,-13.4463564689584
1626179492731.66,-13.4388558195658
1626179492734.99,-13.4643147545236
1626179492738.31,-13.4614298893726
1626179492741.64,-13.4560207672144
1626179492744.96,-13.4247921019545
1626179492748.29,-13.4177241823344
1626179492751.62,-13.4520540776317
1626179492754.94,-13.4567419835021
1626179492758.27,-13.454217726495
1626179492761.6,-13.4056798703289
1626179492764.92,-13.4071223029044
1626179492768.25,-13.4071944245332
1626179492771.58,-13.4221236016898
1626179492774.9,-13.4334466974076
1626179492778.23,-13.446500712216
1626179492781.56,-13.455515915813
1626179492784.88,-13.4172914525618
1626179492788.21,-13.4384952114219
1626179492791.53,-13.4341679136953
1626179492794.86,-13.4544340913813
1626179492798.19,-13.4415243198305
1626179492801.51,-13.4543619697525
1626179492804.84,-13.4263066561588
1626179492808.17,-13.4010640860872
1626179492811.49,-13.4051750189275
1626179492814.82,-13.3591614197685
1626179492818.15,-13.3743790834402
1626179492821.47,-13.3826730707494
1626179492824.8,-13.3819518544617
1626179492828.12,-13.3816633679466
1626179492831.45,-13.3523098650348
1626179492834.78,-13.3617577984044
1626179492838.1,-13.3603874874577
1626179492841.43,-13.354185027383
1626179492844.76,-13.3069453605348
1626179492848.08,-13.3092532526557
1626179492851.41,-13.3057192928456
1626179492854.74,-13.2899246561437
1626179492858.06,-13.315239347844
1626179492861.39,-13.3027623060658
1626179492864.72,-13.2608596397471
1626179492868.04,-13.2266739877074
1626179492871.37,-13.2253036767606
1626179492874.69,-13.2185242436557
1626179492878.02,-13.2289818798282
1626179492881.35,-13.217803027368
1626179492884.67,-13.2002774715754
1626179492888,-13.1624136164681
1626179492891.33,-13.1385413573434
1626179492894.65,-13.121592774581
1626179492897.98,-13.0973599073124
1626179492901.31,-13.0739203779603
1626179492904.63,-13.0408165503522
1626179492907.96,-13.0366334958832
1626179492911.29,-13.0263201029682
1626179492914.61,-13.0127612367584
1626179492917.94,-13.0229303864158
1626179492921.26,-13.0142757909627
1626179492924.59,-12.9961011405112
1626179492927.92,-12.9933605186177
1626179492931.24,-13.0575487682281
1626179492934.57,-13.0777428242854
1626179492937.9,-13.1148854631049
1626179492941.22,-13.071107634438
1626179492944.55,-13.1015429617814
1626179492947.88,-13.1649378734753
1626179492951.2,-13.2392231511144
1626179492954.53,-13.2836500744403
1626179492957.86,-13.3296636735992
1626179492961.18,-13.3752445429855
1626179492964.51,-13.3783457730229
1626179492967.83,-13.4175078174481
1626179492971.16,-13.4525589290332
1626179492974.49,-13.4418128063456
1626179492977.81,-13.4474382933901
1626179492981.14,-13.4428225091484
1626179492984.47,-13.4594104837669
1626179492987.79,-13.4985725281921
1626179492991.12,-13.5122035160307
1626179492994.45,-13.4969137307303
1626179492997.77,-13.5288636122779
1626179493001.1,-13.535931531898
1626179493004.43,-13.5370854779584
1626179493007.75,-13.5485528169337
1626179493011.08,-13.5473988708733
1626179493014.4,-13.5450188571237
1626179493017.73,-13.5605971289393
1626179493021.06,-13.5818730094281
1626179493024.38,-13.5934124700323
1626179493027.71,-13.6027882817731
1626179493031.04,-13.6185107968462
1626179493034.36,-13.5884360776467
1626179493037.69,-13.5660062510975
1626179493041.02,-13.5439370326921
1626179493044.34,-13.5454515868964
1626179493047.67,-13.53463334258
1626179493050.99,-13.5699729406801
1626179493054.32,-13.5953597540092
1626179493057.65,-13.6187992833613
1626179493060.97,-13.626949027413
1626179493064.3,-13.6415897180545
1626179493067.63,-13.5982446191602
1626179493070.95,-13.5845415096928
1626179493074.28,-13.5926191321157
1626179493077.61,-13.5975955245013
1626179493080.93,-13.5889409290482
1626179493084.26,-13.5933403484035
1626179493087.59,-13.5870657667
1626179493090.91,-13.5881475911316
1626179493094.24,-13.5966579433272
1626179493097.56,-13.6066107280982
1626179493100.89,-13.5910324562827
1626179493104.22,-13.5743723600355
1626179493107.54,-13.5383836672763
1626179493110.87,-13.5461728031841
1626179493114.2,-13.53816730239
1626179493117.52,-13.5670159539003
1626179493120.85,-13.5846136313216
1626179493124.18,-13.5893736588208
1626179493127.5,-13.6026440385156
1626179493130.83,-13.5688189946197
1626179493134.16,-13.5669438322716
1626179493137.48,-13.5863445504122
1626179493140.81,-13.5978840110164
1626179493144.13,-13.6458448941523
1626179493147.46,-13.6519752325982
1626179493150.79,-13.6458448941523
1626179493154.11,-13.6299060141928
1626179493157.44,-13.5960088486682
1626179493160.77,-13.5843972664353
1626179493164.09,-13.6131016746881
1626179493167.42,-13.6151210802938
1626179493170.75,-13.6242805271483
1626179493174.07,-13.5845415096928
1626179493177.4,-13.5524473848876
1626179493180.73,-13.5541783039782
1626179493184.05,-13.577401468444
1626179493187.38,-13.6221889999138
1626179493190.7,-13.6600528550211
1626179493194.03,-13.6426715424861
1626179493197.36,-13.6579613277866
1626179493200.68,-13.628247216731
1626179493204.01,-13.633079365859
1626179493207.34,-13.6355315012373
1626179493210.66,-13.6277423653295
1626179493213.99,-13.6238477973757
1626179493217.32,-13.6123083367715
1626179493220.64,-13.5876427397302
1626179493223.97,-13.561967439886
1626179493227.29,-13.5293684636794
1626179493230.62,-13.5235987333773
1626179493233.95,-13.5724971976873
1626179493237.27,-13.6627213552858
1626179493240.6,-13.7167404552389
1626179493243.93,-13.7047682648621
1626179493247.25,-13.6731068698295
1626179493250.58,-13.6490903674472
1626179493253.91,-13.6175732156722
1626179493257.23,-13.6667601664973
1626179493260.56,-13.6682747207015
1626179493263.89,-13.6870263441832
1626179493267.21,-13.7102495086491
1626179493270.54,-13.703181589029
1626179493273.86,-13.6693565451332
1626179493277.19,-13.6541388814615
1626179493280.52,-13.6397145557063
1626179493283.84,-13.6296175276777
1626179493287.17,-13.6151932019226
1626179493290.5,-13.6340890686618
1626179493293.82,-13.6534897868025
1626179493297.15,-13.6586825440744
1626179493300.48,-13.6431042722588
1626179493303.8,-13.6123083367715
1626179493307.13,-13.6067549713558
1626179493310.46,-13.610865904196
1626179493313.78,-13.6671928962699
1626179493317.11,-13.7028931025139
1626179493320.43,-13.707364643498
1626179493323.76,-13.6858002764941
1626179493327.09,-13.6936615340306
1626179493330.41,-13.705128873006
1626179493333.74,-13.6855839116077
1626179493337.07,-13.6732511130871
1626179493340.39,-13.6759917349806
1626179493343.72,-13.6653177339217
1626179493347.05,-13.656879503355
1626179493350.37,-13.6425994208574
1626179493353.7,-13.5909603346539
1626179493357.03,-13.5945664160927
1626179493360.35,-13.5740117518916
1626179493363.68,-13.5231660036047
1626179493367,-13.4906391490268
1626179493370.33,-13.4767917963018
1626179493373.66,-13.4519098343742
1626179493376.98,-13.4700844848257
1626179493380.31,-13.4792439316802
1626179493383.64,-13.5455958301539
1626179493386.96,-13.5699729406801
1626179493390.29,-13.5699729406801
1626179493393.62,-13.5906718481388
1626179493396.94,-13.5869936450712
1626179493400.27,-13.5683141432183
1626179493403.59,-13.5701171839377
1626179493406.92,-13.5957924837819
1626179493410.25,-13.6631540850585
1626179493413.57,-13.7228707936848
1626179493416.9,-13.706715548839
1626179493420.23,-13.6989264129313
1626179493423.55,-13.6927239528565
1626179493426.88,-13.6904881823645
1626179493430.21,-13.6927960744853
1626179493433.53,-13.6628655985434
1626179493436.86,-13.6814729787675
1626179493440.19,-13.6885408983875
1626179493443.51,-13.6900554525918
1626179493446.84,-13.6855839116077
1626179493450.16,-13.6984936831586
1626179493453.49,-13.6741165726324
1626179493456.82,-13.6790929650179
1626179493460.14,-13.6836366276308
1626179493463.47,-13.6452679211221
1626179493466.8,-13.659764368506
1626179493470.12,-13.6797420596769
1626179493473.45,-13.6811844922524
1626179493476.78,-13.6948876017198
1626179493480.1,-13.7067876704678
1626179493483.43,-13.7176059147842
1626179493486.76,-13.7194089555036
1626179493490.08,-13.7339054028875
1626179493493.41,-13.7534503642858
1626179493496.73,-13.8048730856029
1626179493500.06,-13.8924287429367
1626179493503.39,-13.9774601432634
1626179493506.71,-13.99592328023
1626179493510.04,-13.9922450771624
1626179493513.37,-13.9091609608127
1626179493516.69,-13.7918911924232
1626179493520.02,-13.3115611447765
1626179493523.35,-12.5594767999025
1626179493526.67,-12.1250161081572
1626179493530,-11.5072222360637
1626179493533.33,-11.4584680150113
1626179493536.65,-11.4834942201965
1626179493539.98,-11.886726246682
1626179493543.3,-12.4626174524566
1626179493546.63,-12.768413158466
1626179493549.96,-13.3132199422383
1626179493553.28,-13.6804632759647
1626179493556.61,-13.7131343738001
1626179493559.94,-13.6286078248749
1626179493563.26,-13.5867772801849
1626179493566.59,-13.5922585239719
1626179493569.92,-13.5838202934051
1626179493573.24,-13.5986773489329
1626179493576.57,-13.6294732844202
1626179493579.9,-13.5757426709822
1626179493583.22,-13.5979561326451
1626179493586.55,-13.619232013134
1626179493589.87,-13.6049519306364
1626179493593.2,-13.6336563388892
1626179493596.53,-13.6285357032461
1626179493599.85,-13.6050961738939
1626179493603.18,-13.6053125387803
1626179493606.51,-13.6226217296865
1626179493609.83,-13.6280308518447
1626179493613.16,-13.6089186202191
1626179493616.49,-13.6259393246102
1626179493619.81,-13.6344496768057
1626179493623.14,-13.6306272304806
1626179493626.46,-13.6422388127135
1626179493629.79,-13.6082695255601
1626179493633.12,-13.6362527175251
1626179493636.44,-13.6640195446038
1626179493639.77,-13.6591873954758
1626179493643.1,-13.6400751638502
1626179493646.42,-13.6355315012373
1626179493649.75,-13.6104331744234
1626179493653.08,-13.5932682267747
1626179493656.4,-13.6069713362421
1626179493659.73,-13.6038701062048
1626179493663.06,-13.5994706868494
1626179493666.38,-13.5798536038224
1626179493669.71,-13.5845415096928
1626179493673.03,-13.5911766995402
1626179493676.36,-13.5382394240188
1626179493679.69,-13.5003034472827
1626179493683.01,-13.4869609459592
1626179493686.34,-13.5038374070927
1626179493689.67,-13.5194156789083
1626179493692.99,-13.5494903981078
1626179493696.32,-13.5427109650029
1626179493699.65,-13.5139344351214
1626179493702.97,-13.5072271236452
1626179493706.3,-13.5009525419417
1626179493709.63,-13.4764311881579
1626179493712.95,-13.4298406159688
1626179493716.28,-13.435249738127
1626179493719.6,-13.4245036154394
1626179493722.93,-13.427532723848
1626179493726.26,-13.3704123938575
1626179493729.58,-13.3295915519704
1626179493732.91,-13.3150951045865
1626179493736.24,-13.2789621685698
1626179493739.56,-13.2985792515968
1626179493742.89,-13.2957665080746
1626179493746.22,-13.2529262605818
1626179493749.54,-13.2594172071716
1626179493752.87,-13.1785688613139
1626179493756.2,-13.1875840649109
1626179493759.52,-13.1629184678696
1626179493762.85,-13.141858952267
1626179493766.17,-13.143157141585
1626179493769.5,-13.1236121801868
1626179493772.83,-13.1109187735222
1626179493776.15,-13.1049326783338
1626179493779.48,-13.0551687544785
1626179493782.81,-13.0652657825072
1626179493786.13,-13.1132266656431
1626179493789.46,-13.1350795191621
1626179493792.79,-13.1693372928306
1626179493796.11,-13.213619972899
1626179493799.44,-13.2527820173242
1626179493802.76,-13.2765821548202
1626179493806.09,-13.3049259549291
1626179493809.42,-13.3336303631819
1626179493812.74,-13.3584402034807
1626179493816.07,-13.3776966783639
1626179493819.4,-13.4085647354799
1626179493822.72,-13.441019468429
1626179493826.05,-13.4888361083074
1626179493829.38,-13.5169635435299
1626179493832.7,-13.5476152357596
1626179493836.03,-13.5391770051929
1626179493839.36,-13.5332630316333
1626179493842.68,-13.5318927206865
1626179493846.01,-13.5480479655323
1626179493849.33,-13.5566304393566
1626179493852.66,-13.59059972651
1626179493855.99,-13.6291126762763
1626179493859.31,-13.5802863335951
1626179493862.64,-13.5640589671205
1626179493865.97,-13.5862003071547
1626179493869.29,-13.6251459866936
1626179493872.62,-13.6159144182103
1626179493875.95,-13.6345217984345
1626179493879.27,-13.5773293468153
1626179493882.6,-13.5957924837819
1626179493885.93,-13.5988215921905
1626179493889.25,-13.5909603346539
1626179493892.58,-13.6049519306364
1626179493895.9,-13.5959367270394
1626179493899.23,-13.5935567132898
1626179493902.56,-13.5595874261364
1626179493905.88,-13.5318927206865
1626179493909.21,-13.5656456429536
1626179493912.54,-13.6310599602532
1626179493915.86,-13.6560140438097
1626179493919.19,-13.638200001502
1626179493922.52,-13.6083416471889
1626179493925.84,-13.5755263060959
1626179493929.17,-13.5789881442771
1626179493932.5,-13.5699729406801
1626179493935.82,-13.6001197815084
1626179493939.15,-13.6171404858995
1626179493942.47,-13.6100004446507
1626179493945.8,-13.6040143494623
1626179493949.13,-13.5963694568121
1626179493952.45,-13.5913930644265
1626179493955.78,-13.5743723600355
1626179493959.11,-13.5551880067811
1626179493962.43,-13.5600201559091
1626179493965.76,-13.54523522201
1626179493969.09,-13.5321090855729
1626179493972.41,-13.5474709925021
1626179493975.74,-13.5501394927668
1626179493979.06,-13.5758869142398
1626179493982.39,-13.5642032103781
1626179493985.72,-13.5874984964727
1626179493989.04,-13.5968743082135
1626179493992.37,-13.5879312262453
1626179493995.7,-13.5590104531062
1626179493999.02,-13.5558371014401
1626179494002.35,-13.5428552082604
1626179494005.68,-13.5376624509886
1626179494009,-13.5370133563296
1626179494012.33,-13.5993264435919
1626179494015.66,-13.6190156482477
1626179494018.98,-13.612813188173
1626179494022.31,-13.5714153732557
1626179494025.63,-13.5437927894345
1626179494028.96,-13.5378066942461
1626179494032.29,-13.5511491955697
1626179494035.61,-13.5768966170426
1626179494038.94,-13.5704777920816
1626179494042.27,-13.5660062510975
1626179494045.59,-13.5514376820848
1626179494048.92,-13.563265629204
1626179494052.25,-13.5510049523121
1626179494055.57,-13.5342006128073
1626179494058.9,-13.5140786783789
1626179494062.23,-13.5255460173543
1626179494065.55,-13.5386000321627
1626179494068.88,-13.5530964795466
1626179494072.2,-13.5472546276158
1626179494075.53,-13.5704777920816
1626179494078.86,-13.5541061823495
1626179494082.18,-13.5409079242835
1626179494085.51,-13.5463891680705
1626179494088.84,-13.5484085736762
1626179494092.16,-13.5241035847787
1626179494095.49,-13.4614298893726
1626179494098.82,-13.4514771046015
1626179494102.14,-13.5030440691762
1626179494105.47,-13.5781226847318
1626179494108.8,-13.6286799465036
1626179494112.12,-13.6156259316952
1626179494115.45,-13.5254738957255
1626179494118.77,-13.4695075117955
1626179494122.1,-13.4695796334242
1626179494125.43,-13.5476152357596
1626179494128.75,-13.5952155107517
1626179494132.08,-13.6120198502564
1626179494135.41,-13.5972349163574
1626179494138.73,-13.5834596852612
1626179494142.06,-13.5467497762143
1626179494145.39,-13.52756542296
1626179494148.71,-13.5482643304186
1626179494152.04,-13.5453073436388
1626179494155.36,-13.5190550707644
1626179494158.69,-13.4727529850904
1626179494162.02,-13.4996543526237
1626179494165.34,-13.5147277730379
1626179494168.67,-13.5525916281452
1626179494172,-13.5558371014401
1626179494175.32,-13.5561255879552
1626179494178.65,-13.5419897487151
1626179494181.98,-13.5287193690204
1626179494185.3,-13.5447303706086
1626179494188.63,-13.5492740332215
1626179494191.96,-13.5190550707644
1626179494195.28,-13.5159538407271
1626179494198.61,-13.5277817878463
1626179494201.93,-13.5257623822406
1626179494205.26,-13.5266999634147
1626179494208.59,-13.5373018428447
1626179494211.91,-13.5196320437946
1626179494215.24,-13.5215793277716
1626179494218.57,-13.5301618015959
1626179494221.89,-13.5251854092104
1626179494225.22,-13.5325418153455
1626179494228.55,-13.5380230591325
1626179494231.87,-13.5383115456476
1626179494235.2,-13.5232381252334
1626179494238.53,-13.5161702056134
1626179494241.85,-13.5183338544767
1626179494245.18,-13.5109774483415
1626179494248.5,-13.5202811384536
1626179494251.83,-13.508885921107
1626179494255.16,-13.4963367577001
1626179494258.48,-13.4699402415681
1626179494261.81,-13.4312109269155
1626179494265.14,-13.4160653848726
1626179494268.46,-13.3585123251095
1626179494271.79,-13.3013198734903
1626179494275.12,-13.2936028592113
1626179494278.44,-13.3325485387502
1626179494281.77,-13.3675275287065
1626179494285.1,-13.3864233954458
1626179494288.42,-13.4131805197216
1626179494291.75,-13.420104196084
1626179494295.07,-13.4175799390769
1626179494298.4,-13.4666947682732
1626179494301.73,-13.4839318375506
1626179494305.05,-13.5243920712938
1626179494308.38,-13.5550437635236
1626179494311.71,-13.5202090168248
1626179494315.03,-13.5158095974695
1626179494318.36,-13.526267233642
1626179494321.69,-13.5611741019695
1626179494325.01,-13.5440091543209
1626179494328.34,-13.517901124704
1626179494331.67,-13.5102562320538
1626179494334.99,-13.5082368264481
1626179494338.32,-13.5492019115927
1626179494341.64,-13.5294405853081
1626179494344.97,-13.5226611522032
1626179494348.3,-13.5148720162954
1626179494351.62,-13.506650150615
1626179494354.95,-13.5016737582295
1626179494358.28,-13.5023949745172
1626179494361.6,-13.507948339933
1626179494364.93,-13.5326139369743
1626179494368.26,-13.5274211797024
1626179494371.58,-13.5072271236452
1626179494374.91,-13.5070107587589
1626179494378.23,-13.5409800459123
1626179494381.56,-13.5520867767437
1626179494384.89,-13.5411242891698
1626179494388.21,-13.5265557201571
1626179494391.54,-13.5859118206396
1626179494394.87,-13.6453400427508
1626179494398.19,-13.7479691204988
1626179494401.52,-13.7885014758708
1626179494404.85,-13.8931499592245
1626179494408.17,-13.8674746593803
1626179494411.5,-13.8085512886705
1626179494414.83,-13.6222611215426
1626179494418.15,-13.2584796259975
1626179494421.48,-12.9571554609722
1626179494424.8,-12.1962722773877
1626179494428.13,-11.5028949383372
1626179494431.46,-11.3980300900972
1626179494434.78,-11.3623298838532
1626179494438.11,-11.7235150007623
1626179494441.44,-11.9729837146978
1626179494444.76,-12.4925479283986
1626179494448.09,-13.0249497920215
1626179494451.42,-13.2567487069069
1626179494454.74,-13.4674881061897
1626179494458.07,-13.4462843473297
1626179494461.4,-13.4157047767287
1626179494464.72,-13.3924094906341
1626179494468.05,-13.4014968158599
1626179494471.37,-13.4179405472208
1626179494474.7,-13.4281818185069
1626179494478.03,-13.4622953489179
1626179494481.35,-13.4704450929695
1626179494484.68,-13.4442649417239
1626179494488.01,-13.4607086730848
1626179494491.33,-13.4446255498678
1626179494494.66,-13.4437600903225
1626179494497.99,-13.4653965789552
1626179494501.31,-13.4716711606587
1626179494504.64,-13.4572468349036
1626179494507.97,-13.4405867386564
1626179494511.29,-13.4331582108925
1626179494514.62,-13.4252248317271
1626179494517.94,-13.4483758745642
1626179494521.27,-13.4491692124807
1626179494524.6,-13.4377739951341
1626179494527.92,-13.4226284530912
1626179494531.25,-13.3943567746111
1626179494534.58,-13.3373806878782
1626179494537.9,-13.348054688937
1626179494541.23,-13.3826009491206
1626179494544.56,-13.446500712216
1626179494547.88,-13.48220091846
1626179494551.21,-13.4703729713408
1626179494554.53,-13.4306339538853
1626179494557.86,-13.4012804509736
1626179494561.19,-13.4022901537764
1626179494564.51,-13.3820960977192
1626179494567.84,-13.3657244879871
1626179494571.17,-13.3605317307152
1626179494574.49,-13.3496413647701
1626179494577.82,-13.3339909713258
1626179494581.15,-13.3330533901517
1626179494584.47,-13.3258412272741
1626179494587.8,-13.2796833848576
1626179494591.13,-13.2960549945897
1626179494594.45,-13.2744185059569
1626179494597.78,-13.1903968084332
1626179494601.1,-13.197536849682
1626179494604.43,-13.2070569046804
1626179494607.76,-13.268288167511
1626179494611.08,-13.2760773034188
1626179494614.41,-13.2802603578878
1626179494617.74,-13.2542965715285
1626179494621.06,-13.2276115688815
1626179494624.39,-13.2176587841104
1626179494627.72,-13.168255468399
1626179494631.04,-13.1603220892336
1626179494634.37,-13.1659475762782
1626179494637.7,-13.1221697476113
1626179494641.02,-13.0919507851542
1626179494644.35,-13.0680785260294
1626179494647.67,-13.0475238618283
1626179494651,-13.0068472631988
1626179494654.33,-12.9860762341113
1626179494657.65,-12.9785034630899
1626179494660.98,-12.9127285376464
1626179494664.31,-12.8862598998856
1626179494667.63,-12.8745040743952
1626179494670.96,-12.920878281698
1626179494687.59,-12.9409280944977
1626179494690.92,-12.9437408380199
1626179494694.24,-12.9855713827099
1626179494697.57,-13.0077848443729
1626179494700.9,-13.0724779453847
1626179494704.22,-13.1727270093831
1626179494707.55,-13.1729433742694
1626179494710.88,-13.1965271468791
1626179494714.2,-13.2334534208123
1626179494717.53,-13.239006786228
1626179494720.86,-13.240954070205
1626179494724.18,-13.2430455974395
1626179494727.51,-13.2454256111891
1626179494730.83,-13.2969925757638
1626179494734.16,-13.3681045017367
1626179494737.49,-13.4133247629791
1626179494740.81,-13.4157768983575
1626179494744.14,-13.4259460480149
1626179494747.47,-13.4203205609704
1626179494750.79,-13.4259460480149
1626179494754.12,-13.4327254811198
1626179494757.45,-13.429119399681
1626179494760.77,-13.4384952114219
1626179494764.1,-13.4366921707025
1626179494767.43,-13.4336630622939
1626179494770.75,-13.4181569121071
1626179494774.08,-13.4180126688495
1626179494777.4,-13.4266672643026
1626179494780.73,-13.4154884118424
1626179494784.06,-13.4230611828639
1626179494787.38,-13.4296963727112
1626179494790.71,-13.4556601590705
1626179494794.04,-13.463232930092
1626179494797.36,-13.4477267799052
1626179494800.69,-13.4382067249068
1626179494804.02,-13.4463564689584
1626179494807.34,-13.4382788465355
1626179494810.67,-13.4183732769934
1626179494814,-13.4146950739259
1626179494817.32,-13.4117380871461
1626179494820.65,-13.4451304012692
1626179494823.97,-13.4984282849346
1626179494827.3,-13.5048471098956
1626179494830.63,-13.4710220659998
1626179494833.95,-13.4561650104719
1626179494837.28,-13.4286145482796
1626179494840.61,-13.4354661030133
1626179494843.93,-13.4353218597557
1626179494847.26,-13.4418128063456
1626179494850.59,-13.4482316313066
1626179494853.91,-13.4421012928607
1626179494857.24,-13.4450582796405
1626179494860.57,-13.4462843473297
1626179494863.89,-13.4501067936548
1626179494867.22,-13.4364036841874
1626179494870.54,-13.4086368571087
1626179494873.87,-13.4312830485443
1626179494877.2,-13.4163538713877
1626179494880.52,-13.4392885493384
1626179494883.85,-13.4139738576381
1626179494887.18,-13.4203205609704
1626179494890.5,-13.4158490199863
1626179494893.83,-13.3981070993074
1626179494897.16,-13.3846203547264
1626179494900.48,-13.3274279031072
1626179494903.81,-13.3292309438266
1626179494907.14,-13.3740905969251
1626179494910.46,-13.4533522669497
1626179494913.79,-13.5034046773201
1626179494917.11,-13.4836433510355
1626179494920.44,-13.4415964414592
1626179494923.77,-13.4361151976723
1626179494927.09,-13.4137574927518
1626179494930.42,-13.4026507619203
1626179494933.75,-13.4008477212009
1626179494937.07,-13.4164259930165
1626179494940.4,-13.4146950739259
1626179494943.73,-13.403083491693
1626179494947.05,-13.4359709544147
1626179494950.38,-13.4198157095689
1626179494953.7,-13.4183732769934
1626179494957.03,-13.3999822616556
1626179494960.36,-13.3986119507089
1626179494963.68,-13.3954385990427
1626179494967.01,-13.3662293393885
1626179494970.34,-13.345169823786
1626179494973.66,-13.3687535963957
1626179494976.99,-13.3980349776787
1626179494980.32,-13.4682093224775
1626179494983.64,-13.4782342288773
1626179494986.97,-13.5199926519385
1626179494990.3,-13.5096792590236
1626179494993.62,-13.4946779602382
1626179494996.95,-13.4594104837669
1626179495000.27,-13.4439764552088
1626179495003.6,-13.4264508994163
1626179495006.93,-13.4245036154394
1626179495010.25,-13.4342400353241
1626179495013.58,-13.4298406159688
1626179495016.91,-13.4568862267597
1626179495020.23,-13.4015689374887
1626179495023.56,-13.3552668518146
1626179495026.89,-13.3308897412884
1626179495030.21,-13.3765427323035
1626179495033.54,-13.4097186815403
1626179495036.87,-13.4727529850904
1626179495040.19,-13.4631608084632
1626179495043.52,-13.4635935382358
1626179495046.84,-13.4680650792199
1626179495050.17,-13.4498904287684
1626179495053.5,-13.4556601590705
1626179495056.82,-13.4341679136953
1626179495060.15,-13.4392885493384
1626179495063.48,-13.4364758058162
1626179495066.8,-13.4323648729759
1626179495070.13,-13.4074829110483
1626179495073.46,-13.3797160839696
1626179495076.78,-13.3572141357916
1626179495080.11,-13.3943567746111
1626179495083.44,-13.4022901537764
1626179495086.76,-13.4662620385006
1626179495090.09,-13.4948222034958
1626179495093.41,-13.4891967164513
1626179495096.74,-13.4562371321007
1626179495100.07,-13.4414521982017
1626179495103.39,-13.4022901537764
1626179495106.72,-13.3127150908369
1626179495110.05,-13.3554832167009
1626179495113.37,-13.3893082605968
1626179495116.7,-13.4772245260745
1626179495120.03,-13.5135017053487
1626179495123.35,-13.5047749882668
1626179495126.68,-13.4718875255451
1626179495130,-13.4331582108925
1626179495133.33,-13.4266672643026
1626179495136.66,-13.4293357645673
1626179495139.98,-13.4378461167629
1626179495143.31,-13.4340236704378
1626179495146.64,-13.3986840723376
1626179495149.96,-13.3453140670436
1626179495153.29,-13.358368081852
1626179495156.62,-13.3955828423003
1626179495159.94,-13.4327976027486
1626179495163.27,-13.4687141738789
1626179495166.6,-13.4579680511913
1626179495169.92,-13.4603480649409
1626179495173.25,-13.4418128063456
1626179495176.57,-13.4442649417239
1626179495179.9,-13.4282539401357
1626179495183.23,-13.4286866699084
1626179495186.55,-13.4239266424092
1626179495189.88,-13.4132526413503
1626179495193.21,-13.3846924763551
1626179495196.53,-13.3743069618114
1626179495199.86,-13.37380211041
1626179495203.19,-13.3476219591644
1626179495206.51,-13.3131478206095
1626179495209.84,-13.2800439930015
1626179495213.17,-13.2520608010365
1626179495216.49,-13.199772620174
1626179495219.82,-13.2032344583552
1626179495223.14,-13.27247122198
1626179495226.47,-13.3347121876135
1626179495229.8,-13.3613250686318
1626179495233.12,-13.3701960289712
1626179495236.45,-13.3613971902606
1626179495239.78,-13.342934053294
1626179495243.1,-13.3452419454148
1626179495246.43,-13.359954757685
1626179495249.76,-13.3809421516588
1626179495253.08,-13.4152720469561
1626179495256.41,-13.4008477212009
1626179495259.74,-13.4115217222597
1626179495263.06,-13.4129641548352
1626179495266.39,-13.4035883430944
1626179495269.71,-13.4181569121071
1626179495279.69,-13.427532723848
1626179495283.02,-13.4518377127454
1626179495286.35,-13.4659735519854
1626179495289.67,-13.47159903903
1626179495293,-13.463882024751
1626179495296.33,-13.4586892674791
1626179495299.65,-13.4313551701731
1626179495302.98,-13.4252969533559
1626179495306.3,-13.404021072867
1626179495309.63,-13.4056077487001
1626179495312.96,-13.408204127336
1626179495316.28,-13.3932028285507
1626179495319.61,-13.391183422945
1626179495322.94,-13.4146950739259
1626179495326.26,-13.4610692812287
1626179495329.59,-13.4664784033869
1626179495332.92,-13.4570304700173
1626179495336.24,-13.4544340913813
1626179495339.57,-13.4848694187247
1626179495342.9,-13.6131016746881
1626179495346.22,-13.7173174282691
1626179495349.55,-13.7662880142078
1626179495352.87,-13.7978051659829
1626179495356.2,-13.682266316684
1626179495359.53,-13.5841087799202
1626179495362.85,-13.2907901156891
1626179495366.18,-12.7746877401695
1626179495369.51,-12.4100407850791
1626179495372.83,-11.611365868016
1626179495376.16,-11.3029737833707
1626179495379.49,-11.2905688632213
1626179495382.81,-11.4729644623952
1626179495386.14,-11.9820710399236
1626179495389.47,-12.2293761049957
1626179495392.79,-12.7474257644922
1626179495396.12,-13.1919834842662
1626179495399.44,-13.300454413945
1626179495402.77,-13.3902458417709
1626179495406.1,-13.3757493943869
1626179495409.42,-13.3189175509116
1626179495412.75,-13.3168981453059
1626179495416.08,-13.316537537162
1626179495419.4,-13.3199993753432
1626179495422.73,-13.3137969152685
1626179495426.06,-13.3103350770873
1626179495429.38,-13.3098302256859
1626179495432.71,-13.319422402313
1626179495436.04,-13.3241103081835
1626179495439.36,-13.342284958635
1626179495442.69,-13.3454583103011
1626179495446.01,-13.3377412960221
1626179495449.34,-13.3358661336739
1626179495452.67,-13.3204321051159
1626179495455.99,-13.3180520913663
1626179495459.32,-13.3202157402296
1626179495462.65,-13.2858858449323
1626179495465.97,-13.3029786709522
1626179495469.3,-13.3038441304975
1626179495472.63,-13.2974974271652
1626179495475.95,-13.2932422510674
1626179495479.28,-13.3150229829577
1626179495482.6,-13.3645705419267
1626179495485.93,-13.3462516482176
1626179495489.26,-13.3440158777256
1626179495492.58,-13.2777361008806
1626179495495.91,-13.26540330236
1626179495499.24,-13.2529983822105
1626179495502.56,-13.2522771659228
1626179495505.89,-13.2679275593671
1626179495509.22,-13.2773754927368
1626179495512.54,-13.2807652092892
1626179495515.87,-13.2819912769784
1626179495519.2,-13.2889870749697
1626179495522.52,-13.3134363071247
1626179495525.85,-13.2966319676199
1626179495529.17,-13.2708124245182
1626179495532.5,-13.2348958533878
1626179495535.83,-13.2146296757018
1626179495539.15,-13.208138729112
1626179495542.48,-13.2028738502114
1626179495545.81,-13.1863579972217
1626179495549.13,-13.1750349015039
1626179495552.46,-13.15700449431
1626179495555.79,-13.1210879231796
1626179495559.11,-13.1007496238648
1626179495562.44,-13.067573674628
1626179495565.77,-13.0664197285676
1626179495569.09,-13.0561063356526
1626179495572.42,-13.0371383472846
1626179495575.74,-13.0307916439523
1626179495579.07,-13.0211273456964
1626179495582.4,-12.982325909415
1626179495585.72,-12.9883120046034
1626179495589.05,-12.9855713827099
1626179495592.38,-12.9421541621869
1626179495595.7,-12.9359517021122
1626179495599.03,-12.910925496927
1626179495602.36,-12.8929672113618
1626179495605.68,-12.890010224582
1626179495609.01,-12.8633252219349
1626179495612.34,-12.8640464382227
1626179495615.66,-12.8460881526575
1626179495618.99,-12.8368565841742
1626179495622.31,-12.8006515265288
1626179495625.64,-12.7984878776655
1626179495628.97,-12.7829096058499
1626179495632.29,-12.7782938216083
1626179495635.62,-12.7912757147879
1626179495638.95,-12.8471699770892
1626179495642.27,-12.9210225249556
1626179495645.6,-12.9617712452139
1626179495648.93,-12.9846338015358
1626179495652.25,-13.0069193848275
1626179495655.58,-13.0069915064563
1626179495658.91,-13.0595681738339
1626179495662.23,-13.0776707026566
1626179495665.56,-13.1278673562845
1626179495668.88,-13.1623414948394
1626179495672.21,-13.1681833467702
1626179495675.54,-13.1929931870691
1626179495678.86,-13.2168654461939
1626179495682.19,-13.2163605947924
1626179495685.52,-13.2458583409617
1626179495688.84,-13.2532868687256
1626179495692.17,-13.2756445736461
1626179495695.5,-13.2533589903544
1626179495698.82,-13.2627348020953
1626179495702.15,-13.2497529089156
1626179495705.47,-13.2580468962248
1626179495708.8,-13.2824961283798
1626179495712.13,-13.2874003991366
1626179495715.45,-13.2993725895134
1626179495718.78,-13.3052144414442
1626179495722.11,-13.3003101706875
1626179495725.43,-13.3241824298122
1626179495728.76,-13.3252642542439
1626179495732.09,-13.3505789459442
1626179495735.41,-13.3549062436707
1626179495738.74,-13.3467564996191
1626179495742.07,-13.3296636735992
1626179495745.39,-13.340337674658
1626179495748.72,-13.3324764171215
1626179495752.04,-13.3379576609084
1626179495755.37,-13.3117775096628
1626179495758.7,-13.3029065493234
1626179495762.02,-13.302401697922
1626179495765.35,-13.3026180628083
1626179495768.68,-13.303339279096
1626179495772,-13.2896361696286
1626179495775.33,-13.2811258174331
1626179495778.66,-13.2902131426588
1626179495781.98,-13.2922325482646
1626179495785.31,-13.3140854017836
1626179495788.64,-13.3237497000396
1626179495791.96,-13.3231006053806
1626179495795.29,-13.3150229829577
1626179495798.61,-13.3021132114069
1626179495801.94,-13.2990841029983
1626179495805.27,-13.3070896037924
1626179495808.59,-13.2728318301239
1626179495811.92,-13.2910786022042
1626179495815.25,-13.2603547883457
1626179495818.57,-13.2620857074363
1626179495821.9,-13.2822797634935
1626179495825.23,-13.2596335720579
1626179495828.55,-13.2595614504291
1626179495831.88,-13.2756445736461
1626179495835.21,-13.3000216841724
1626179495838.53,-13.340337674658
1626179495841.86,-13.3525262299211
1626179495845.18,-13.3653638798432
1626179495848.51,-13.3378855392796
1626179495851.84,-13.3308176196596
1626179495855.16,-13.3143738882987
1626179495858.49,-13.2931701294387
1626179495861.82,-13.2930258861811
1626179495865.14,-13.2967762108774
1626179495868.47,-13.3104071987161
1626179495871.8,-13.2913670887193
1626179495875.12,-13.2866791828488
1626179495878.45,-13.2932422510674
1626179495881.77,-13.2827846148949
1626179495885.1,-13.2982907650817
1626179495888.43,-13.2901410210301
1626179495891.75,-13.2936028592113
1626179495895.08,-13.2762215466763
1626179495898.41,-13.2441995434999
1626179495901.73,-13.2441274218711
1626179495905.06,-13.2946125620142
1626179495908.39,-13.3807257867725
1626179495911.71,-13.373153015751
1626179495915.04,-13.3326927820078
1626179495918.37,-13.3461074049601
1626179495921.69,-13.3686093531381
1626179495925.02,-13.4069780596469
1626179495928.34,-13.407266546162
1626179495931.67,-13.3898131119982
1626179495935,-13.42270057472
1626179495938.32,-13.4278933319918
1626179495941.65,-13.4103677761993
1626179495944.98,-13.4257296831286
1626179495948.3,-13.4018574240038
1626179495951.63,-13.3826730707494
1626179495954.96,-13.3588729332534
1626179495958.28,-13.3300964033719
1626179495961.61,-13.37380211041
1626179495964.94,-13.3673111638202
1626179495968.26,-13.3588008116246
1626179495971.59,-13.3673832854489
1626179495974.91,-13.352237743406
1626179495978.24,-13.3412031342033
1626179495981.57,-13.3350006741286
1626179495984.89,-13.341635863976
1626179495988.22,-13.3426455667788
1626179495991.55,-13.3364431067041
1626179495994.87,-13.3305291331445
1626179495998.2,-13.3254084975014
1626179496001.53,-13.3166096587908
1626179496004.85,-13.3128593340944
1626179496008.18,-13.3086762796255
1626179496011.51,-13.3334139982955
1626179496014.83,-13.3259133489029
1626179496018.16,-13.3276442679935
1626179496021.48,-13.308171428224
1626179496024.81,-13.3086762796255
1626179496028.14,-13.3174029967073
1626179496031.46,-13.3112005366326
1626179496034.79,-13.3169702669347
1626179496038.12,-13.3267066868194
1626179496041.44,-13.3394722151127
1626179496044.77,-13.3406261611731
1626179496048.1,-13.3470449861342
1626179496051.42,-13.3763263674171
1626179496054.75,-13.3576468655642
1626179496058.07,-13.3308897412884
1626179496061.4,-13.3308897412884
1626179496064.73,-13.329086700569
1626179496068.05,-13.3453140670436
1626179496071.38,-13.3586565683671
1626179496074.71,-13.3312503494323
1626179496078.03,-13.3169702669347
1626179496081.36,-13.308171428224
1626179496084.69,-13.31783572648
1626179496088.01,-13.2919440617495
1626179496091.34,-13.3166817804196
1626179496094.67,-13.3078108200801
1626179496097.99,-13.320071496972
1626179496101.32,-13.3166096587908
1626179496104.64,-13.292088305007
1626179496107.97,-13.2931701294387
1626179496111.3,-13.3278606328798
1626179496114.62,-13.3425734451501
1626179496117.95,-13.3560601897311
1626179496121.28,-13.3404097962868
1626179496124.6,-13.3664457042749
1626179496127.93,-13.3463958914752
1626179496131.26,-13.3073059686787
1626179496134.58,-13.2734088031541
1626179496137.91,-13.2597778153155
1626179496141.24,-13.2932422510674
1626179496144.56,-13.2935307375825
1626179496147.89,-13.2665572484204
1626179496151.21,-13.2084993372559
1626179496154.54,-13.1738088338147
1626179496157.87,-13.1588796566581
1626179496161.19,-13.1349352759046
1626179496164.52,-13.1482777772281
1626179496167.85,-13.2020805122948
1626179496171.17,-13.2589844773989
1626179496174.5,-13.2575420448234
1626179496177.83,-13.2267461093362
1626179496181.15,-13.2383576915691
1626179496184.48,-13.2543686931573
1626179496187.81,-13.3000938058011
1626179496191.13,-13.3280769977661
1626179496194.46,-13.3008150220889
1626179496197.78,-13.3301685250006
1626179496201.11,-13.3225957539792
1626179496204.44,-13.3748118132129
1626179496207.76,-13.372503921092
1626179496211.09,-13.3935634366946
1626179496214.42,-13.3658687312447
1626179496217.74,-13.4056798703289
1626179496221.07,-13.4043095593821
1626179496224.4,-13.3800766921135
1626179496227.72,-13.3791391109394
1626179496231.05,-13.4015689374887
1626179496234.38,-13.3838991384386
1626179496237.7,-13.4013525726023
1626179496241.03,-13.3367315932192
1626179496244.35,-13.3707008803726
1626179496247.68,-13.3858464224155
1626179496251.01,-13.3943567746111
1626179496254.33,-13.3880821929076
1626179496257.66,-13.3433667830666
1626179496260.99,-13.3726481643496
1626179496264.31,-13.3739463536675
1626179496267.64,-13.3701960289712
1626179496270.97,-13.4198157095689
1626179496274.29,-13.4615020110014
1626179496277.62,-13.5248969226953
1626179496280.94,-13.6203138375656
1626179496284.27,-13.6823384383128
1626179496287.6,-13.7010179401658
1626179496290.92,-13.7076531300131
1626179496294.25,-13.690632425622
1626179496297.58,-13.4883312569059
1626179496300.9,-13.1911901463497
1626179496304.23,-12.8853223187116
1626179496307.56,-12.1423974206921
1626179496310.88,-11.5013803841329
1626179496314.21,-11.4133919970264
1626179496317.54,-11.4065404422927
1626179496320.86,-11.6249968558546
1626179496324.19,-11.8466266210826
1626179496327.51,-12.3814084984551
1626179496330.84,-12.9311195529842
1626179496334.17,-13.138324992457
1626179496337.49,-13.3975301262772
1626179496340.82,-13.3149508613289
1626179496344.15,-13.2733366815253
1626179496347.47,-13.3079550633377
1626179496350.8,-13.2568208285357
1626179496354.13,-13.3259854705316
1626179496357.45,-13.4053913838138
1626179496360.78,-13.3764706106747
1626179496364.11,-13.3833942870372
1626179496367.43,-13.3502183378003
1626179496370.76,-13.3139411585261
1626179496374.08,-13.3189896725404
1626179496377.41,-13.3341352145833
1626179496380.74,-13.2935307375825
1626179496384.06,-13.3321158089776
1626179496387.39,-13.2765100331914
1626179496390.72,-13.292088305007
1626179496394.04,-13.320071496972
1626179496397.37,-13.3525983515499
1626179496400.7,-13.3062241442471
1626179496404.02,-13.3122102394355
1626179496407.35,-13.2995168327709
1626179496410.68,-13.2602105450881
1626179496414,-13.2639608697845
1626179496417.33,-13.2924489131509
1626179496420.65,-13.2727597084951
1626179496423.98,-13.2796833848576
1626179496427.31,-13.4141902225244
1626179496430.63,-13.386351273817
1626179496433.96,-13.3271394165921
1626179496437.29,-13.2997331976573
1626179496440.61,-13.2414589216064
1626179496443.94,-13.2621578290651
1626179496447.27,-13.2889870749697
1626179496450.59,-13.2723269787225
1626179496453.92,-13.2413146783489
1626179496457.24,-13.2484547195977
1626179496460.57,-13.2341025154713
1626179496463.9,-13.2307849205476
1626179496467.22,-13.2141248243004
1626179496470.55,-13.2065520532789
1626179496473.88,-13.2715336408059
1626179496477.2,-13.1784246180564
1626179496480.53,-13.1404165196915
1626179496483.86,-13.1841222267297
1626179496487.18,-13.1024805429555
1626179496490.51,-13.0737761347027
1626179496493.84,-13.1202945852631
1626179496497.16,-13.1707076037774
1626179496500.49,-13.1866464837368
1626179496503.81,-13.173087617527
1626179496507.14,-13.1151018279912
1626179496510.47,-13.0945471637901
1626179496513.79,-13.073992499589
1626179496517.12,-13.0224255350143
1626179496520.45,-13.0144200342202
1626179496523.77,-12.9932162753601
1626179496527.1,-12.9306147015828
1626179496530.43,-12.9195079707513
1626179496533.75,-12.9009005905271
1626179496537.08,-12.8649840193968
1626179496540.41,-12.8680131278054
1626179496543.73,-12.8763792367434
1626179496547.06,-12.837577800462
1626179496550.38,-12.8168067713746
1626179496553.71,-12.827264407547
1626179496557.04,-12.7935836069088
1626179496560.36,-12.846593004059
1626179496563.69,-12.8644791679954
1626179496567.02,-12.8367123409167
1626179496570.34,-12.8437081389079
1626179496573.67,-12.8868368729159
1626179496577,-12.9089060913212
1626179496580.32,-12.9249892145382
1626179496583.65,-12.9949471944508
1626179496586.98,-13.0648330527345
1626179496590.3,-13.0833683113299
1626179496593.63,-13.1287328158299
1626179496596.95,-13.1338534514729
1626179496600.28,-13.1515953721518
1626179496603.61,-13.1990514038862
1626179496606.93,-13.2106629861192
1626179496610.26,-13.2288376365706
1626179496613.59,-13.2274673256239
1626179496616.91,-13.2619414641787
1626179496620.24,-13.2735530464116
1626179496623.57,-13.3074502119363
1626179496626.89,-13.3308897412884
1626179496630.22,-13.3525262299211
1626179496633.54,-13.3049980765579
1626179496636.87,-13.2959107513321
1626179496640.2,-13.3148787397002
1626179496643.52,-13.3347121876135
1626179496646.85,-13.355771703216
1626179496650.18,-13.3783457730229
1626179496653.5,-13.3686093531381
1626179496656.83,-13.3580795953369
1626179496660.16,-13.3486316619672
1626179496663.48,-13.3822403409768
1626179496666.81,-13.4074107894195
1626179496670.14,-13.3986840723376
1626179496673.46,-13.3894525038543
1626179496676.79,-13.3943567746111
1626179496680.11,-13.3738742320388
1626179496683.44,-13.3716384615467
1626179496686.77,-13.3539686624966
1626179496690.09,-13.3534638110952
1626179496693.42,-13.3531032029513
1626179496696.75,-13.3576468655642
1626179496700.07,-13.3524541082924
1626179496703.4,-13.3598826360563
1626179496706.73,-13.3551226085571
1626179496710.05,-13.3465401347327
1626179496713.38,-13.3251921326151
1626179496716.71,-13.3264903219331
1626179496720.03,-13.3411310125746
1626179496723.36,-13.3206484700022
1626179496726.68,-13.3371643229919
1626179496730.01,-13.3762542457884
1626179496733.34,-13.4006313563146
1626179496736.66,-13.4137574927518
1626179496739.99,-13.4258739263861
1626179496743.32,-13.4103677761993
1626179496746.64,-13.3606759739728
1626179496749.97,-13.3746675699553
1626179496753.3,-13.3437273912105
1626179496756.62,-13.3492807566262
1626179496759.95,-13.3575026223067
1626179496763.28,-13.3498577296564
1626179496766.6,-13.3517328920046
1626179496769.93,-13.32136968629
1626179496773.25,-13.2558832473616
1626179496776.58,-13.2636723832694
1626179496779.91,-13.2844434123568
1626179496783.23,-13.3276442679935
1626179496786.56,-13.3722154345769
1626179496789.89,-13.3187733076541
1626179496793.21,-13.2805488444029
1626179496796.54,-13.2875446423941
1626179496799.87,-13.3424292018925
1626179496803.19,-13.3417079856048
1626179496806.52,-13.3401213097717
1626179496809.84,-13.3078108200801
1626179496813.17,-13.2556668824752
1626179496816.5,-13.3103350770873
1626179496819.82,-13.3386067555674
1626179496823.15,-13.4139017360093
1626179496826.48,-13.4320042648321
1626179496829.8,-13.3911113013162
1626179496833.13,-13.374451205069
1626179496836.46,-13.312354482693
1626179496839.78,-13.2916555752344
1626179496843.11,-13.2815585472058
1626179496846.44,-13.3137969152685
1626179496849.76,-13.345169823786
1626179496853.09,-13.3253363758727
1626179496856.41,-13.3259133489029
1626179496859.74,-13.3024738195507
1626179496863.07,-13.3223072674641
1626179496866.39,-13.3128593340944
1626179496869.72,-13.3282212410237
1626179496873.05,-13.3187733076541
1626179496876.37,-13.348054688937
1626179496879.7,-13.3254806191302
1626179496883.03,-13.2757166952749
1626179496886.35,-13.2644657211859
1626179496889.68,-13.2375643536525
1626179496893.01,-13.2452092463028
1626179496896.33,-13.2746348708433
1626179496899.66,-13.3174029967073
1626179496902.98,-13.3254084975014
1626179496906.31,-13.3156720776167
1626179496909.64,-13.3613971902606
1626179496912.96,-13.3099023473146
1626179496916.29,-13.2855252367884
1626179496919.62,-13.299156224627
1626179496922.94,-13.2987956164832
1626179496926.27,-13.3003822923162
1626179496929.6,-13.2664851267916
1626179496932.92,-13.260571153232
1626179496936.25,-13.238069205054
1626179496939.58,-13.2157836217622
1626179496942.9,-13.2084993372559
1626179496946.23,-13.21297087824
1626179496949.55,-13.3142296450412
1626179496952.88,-13.345818918445
1626179496956.21,-13.3483431754521
1626179496959.53,-13.3621184065483
1626179496962.86,-13.366085096131
1626179496966.19,-13.2782409522821
1626179496969.51,-13.2714615191771
1626179496972.84,-13.2871840342503
1626179496976.17,-13.2680718026247
1626179496979.49,-13.2532147470969
1626179496982.82,-13.2417474081215
1626179496986.15,-13.2597056936867
1626179496989.47,-13.2715336408059
1626179496992.8,-13.2399443674021
1626179496996.12,-13.1362334652225
1626179496999.45,-13.1495038449173
1626179497002.78,-13.2236448792988
1626179497006.1,-13.3207927132598
1626179497009.43,-13.3677438935928
1626179497012.76,-13.3677438935928
1626179497016.08,-13.2551620310738
1626179497019.41,-13.0832240680723
1626179497022.74,-13.1029853943569
1626179497026.06,-13.2464353139919
1626179497029.39,-13.4662620385006
1626179497032.71,-13.5030440691762
1626179497036.04,-13.445202522898
1626179497039.37,-13.4096465599116
1626179497042.69,-13.355771703216
1626179497046.02,-13.3437273912105
1626179497049.35,-13.2874003991366
1626179497052.67,-13.2468680437646
1626179497056,-13.2681439242535
1626179497059.33,-13.2796112632288
1626179497062.65,-13.2921604266358
1626179497065.98,-13.2510510982336
1626179497069.31,-13.2111678375206
1626179497072.63,-13.2043162827869
1626179497075.96,-13.2347516101303
1626179497079.28,-13.1884495244562
1626179497082.61,-13.1488547502583
1626179497085.94,-13.0881283388291
1626179497089.26,-13.1494317232885
1626179497092.59,-13.1854204160476
1626179497095.92,-13.1739530770723
1626179497099.24,-13.1511626423791
1626179497102.57,-13.1228188422702
1626179497105.9,-13.229703096116
1626179497109.22,-13.2359055561907
1626179497112.55,-13.2630954102392
1626179497115.88,-13.3166096587908
1626179497119.2,-13.2866791828488
1626179497122.53,-13.305286563073
1626179497125.85,-13.2851646286445
1626179497129.18,-13.32843760591
1626179497132.51,-13.3235333351533
1626179497135.83,-13.2604269099744
1626179497139.16,-13.2465074356207
1626179497142.49,-13.240304975546
1626179497145.81,-13.3275000247359
1626179497149.14,-13.4264508994163
1626179497152.47,-13.4051750189275
1626179497155.79,-13.4292636429386
1626179497159.12,-13.4187338851373
1626179497162.45,-13.4102956545705
1626179497165.77,-13.3688978396532
1626179497169.1,-13.394717382755
1626179497172.42,-13.4127477899489
1626179497175.75,-13.3734415022661
1626179497179.08,-13.3913276662025
1626179497182.4,-13.4000543832844
1626179497185.73,-13.3716384615467
1626179497189.06,-13.38087003003
1626179497192.38,-13.3569256492765
1626179497195.71,-13.3844761114688
1626179497199.04,-13.3901737201421
1626179497202.36,-13.3981792209362
1626179497205.69,-13.4954712981547
1626179497209.01,-13.5437927894345
1626179497212.34,-13.6726741400569
1626179497215.67,-13.68486269532
1626179497218.99,-13.6334399740028
1626179497222.32,-13.4397934007398
1626179497225.65,-13.0655542690223
1626179497228.97,-12.8202686095558
1626179497232.3,-12.0994850515705
1626179497235.63,-11.4358939452045
1626179497238.95,-11.3101859462483
1626179497242.28,-11.2630184010289
1626179497245.61,-11.5613134576456
1626179497248.93,-11.8040748601049
1626179497252.26,-12.2838279347215
1626179497255.58,-12.9149643081384
1626179497258.91,-13.1216648962098
1626179497262.24,-13.3453140670436
1626179497265.56,-13.2928095212948
1626179497268.89,-13.2571814366795
1626179497272.22,-13.2146296757018
1626179497275.54,-13.1792900776017
1626179497278.87,-13.1707797254061
1626179497282.2,-13.2512674631199
1626179497285.52,-13.2560274906191
1626179497288.85,-13.2377085969101
1626179497292.18,-13.2730481950102
1626179497295.5,-13.22710671748
1626179497298.83,-13.2043162827869
1626179497302.15,-13.241603164864
1626179497305.48,-13.3356497687876
1626179497308.81,-13.3027623060658
1626179497312.13,-13.2349679750166
1626179497315.46,-13.1405607629491
1626179497318.79,-13.1342140596168
1626179497322.11,-13.1161115307941
1626179497325.44,-13.2286212716843
1626179497328.77,-13.2892755614848
1626179497332.09,-13.3119217529204
1626179497335.42,-13.1008217454936
1626179497338.75,-13.0791131352321
1626179497342.07,-13.1565717645373
1626179497345.4,-13.3209369565173
1626179497348.72,-13.3891640173392
1626179497352.05,-13.4089974652526
1626179497355.38,-13.3203599834871
1626179497358.7,-13.290501629174
1626179497362.03,-13.271173032662
1626179497365.36,-13.2370595022511
1626179497368.68,-13.2643214779283
1626179497372.01,-13.2454256111891
1626179497375.34,-13.2092205535436
1626179497378.66,-13.2072011479379
1626179497381.99,-13.208138729112
1626179497385.31,-13.1368825598815
1626179497388.64,-13.1194291257178
1626179497391.97,-13.1500086963187
1626179497395.29,-13.1392625736311
1626179497398.62,-13.1452486688195
1626179497401.95,-13.1768379422233
1626179497405.27,-13.1086830030302
1626179497408.6,-13.1164000173092
1626179497411.93,-13.0802670812925
1626179497415.25,-13.1059423811367
1626179497418.58,-13.1143084900747
1626179497421.91,-13.1148133414761
1626179497425.23,-13.0923113932981
1626179497428.56,-13.0336043874746
1626179497431.88,-12.9820374228999
1626179497435.21,-12.960761542411
1626179497438.54,-12.9304704583252
1626179497441.86,-12.9697046243792
1626179497445.19,-12.9744646518784
1626179497448.52,-12.9307589448403
1626179497451.84,-12.8383711383785
1626179497455.17,-12.8126237169056
1626179497458.5,-12.7922854175908
1626179497461.82,-12.7497336566131
1626179497465.15,-12.7102110040439
1626179497468.48,-12.7299002086997
1626179497471.8,-12.8315917052736
1626179497475.13,-12.8721961822744
1626179497478.45,-12.8977993604898
1626179497481.78,-12.8258940966003
1626179497485.11,-12.7940163366814
1626179497488.43,-12.7773562404342
1626179497491.76,-12.795747255772
1626179497495.09,-12.8085127840653
1626179497498.41,-12.7998581886122
1626179497501.74,-12.8538051669365
1626179497505.07,-12.8533003155351
1626179497508.39,-12.9479238924889
1626179497511.72,-12.9731664625605
1626179497515.05,-12.9777101251733
1626179497518.37,-13.0173048993713
1626179497521.7,-13.0029526952449
1626179497525.02,-13.0184588454317
1626179497528.35,-13.0349746984213
1626179497531.68,-13.0902198660636
1626179497535,-13.1153903145063
1626179497538.33,-13.1932816735842
1626179497541.66,-13.2236448792988
1626179497544.98,-13.2090041886573
1626179497548.31,-13.1523887100683
1626179497551.64,-13.2119611754371
1626179497554.96,-13.2360497994482
1626179497558.29,-13.2651148158449
1626179497561.61,-13.2289818798282
1626179497564.94,-13.200421714833
1626179497568.27,-13.1999889850603
1626179497571.59,-13.1722942796104
1626179497574.92,-13.2072011479379
1626179497578.25,-13.2586238692551
1626179497581.57,-13.2878331289092
1626179497584.9,-13.3025459411795
1626179497588.23,-13.3267066868194
1626179497591.55,-13.2636723832694
1626179497594.88,-13.2569650717932
1626179497598.21,-13.2372758671374
1626179497601.53,-13.2521329226652
1626179497604.86,-13.2560274906191
1626179497608.18,-13.2558832473616
1626179497611.51,-13.240954070205
1626179497614.84,-13.2587681125126
1626179497618.16,-13.2514838280062
1626179497621.49,-13.2729039517527
1626179497624.82,-13.252854138953
1626179497628.14,-13.2328043261533
1626179497631.47,-13.2263855011923
1626179497634.8,-13.2363382859633
1626179497638.12,-13.2100860130889
1626179497641.45,-13.203955674643
1626179497644.78,-13.2122496619522
1626179497648.1,-13.2028738502114
1626179497651.43,-13.1498644530612
1626179497654.75,-13.1060866243943
1626179497658.08,-13.1171933552257
1626179497661.41,-13.2219139602082
1626179497664.73,-13.2631675318679
1626179497668.06,-13.3764706106747
1626179497671.39,-13.310118712201
1626179497674.71,-13.2867513044776
1626179497678.04,-13.2142690675579
1626179497681.37,-13.1747464149888
1626179497684.69,-13.2020083906661
1626179497688.02,-13.2418916513791
1626179497691.35,-13.2584075043687
1626179497694.67,-13.2630232886104
1626179497698,-13.2613644911485
1626179497701.32,-13.2449207597877
1626179497704.65,-13.2110957158918
1626179497707.98,-13.2387904213417
1626179497711.3,-13.2405213404323
1626179497714.63,-13.239655880887
1626179497717.96,-13.2805488444029
1626179497721.28,-13.2516280712638
1626179497724.61,-13.2133314863839
1626179497727.94,-13.233237055926
1626179497731.26,-13.2395837592582
1626179497734.59,-13.2391510294856
1626179497737.92,-13.2160721082773
1626179497741.24,-13.2152787703608
1626179497744.57,-13.205253863961
1626179497747.89,-13.2132593647551
1626179497751.22,-13.2402328539172
1626179497754.55,-13.2321552314943
1626179497757.87,-13.2050374990746
1626179497761.2,-13.2008544446056
1626179497764.53,-13.1825355508966
1626179497767.85,-13.181453726465
1626179497771.18,-13.1722221579817
1626179497774.51,-13.1673900088537
1626179497777.83,-13.2360497994482
1626179497781.16,-13.326201835418
1626179497784.48,-13.3752445429855
1626179497787.81,-13.351588648747
1626179497791.14,-13.3337746064394
1626179497794.46,-13.2906458724315
1626179497797.79,-13.2749954789872
1626179497801.12,-13.277952465767
1626179497804.44,-13.2518444361501
1626179497807.77,-13.2636723832694
1626179497811.1,-13.2628790453528
1626179497814.42,-13.286318574705
1626179497817.75,-13.26186934255
1626179497821.08,-13.2591287206565
1626179497824.4,-13.2721106138361
1626179497827.73,-13.2868955477352
1626179497831.05,-13.2706681812606
1626179497834.38,-13.2578305313385
1626179497837.71,-13.2260248930484
1626179497841.03,-13.2221303250945
1626179497844.36,-13.2767985197066
1626179497847.69,-13.288554345197
1626179497851.01,-13.2945404403854
1626179497854.34,-13.3042768602701
1626179497857.67,-13.3291588221978
1626179497860.99,-13.2719663705786
1626179497864.32,-13.2270345958513
1626179497867.65,-13.2564602203918
1626179497870.97,-13.2918719401207
1626179497874.3,-13.3131478206095
1626179497877.62,-13.2876167640229
1626179497880.95,-13.2952616566732
1626179497884.28,-13.3098302256859
1626179497887.6,-13.3477662024219
1626179497890.93,-13.3620462849195
1626179497894.26,-13.3382461474235
1626179497897.58,-13.3241103081835
1626179497900.91,-13.3186290643965
1626179497904.24,-13.3096138607995
1626179497907.56,-13.3062241442471
1626179497910.89,-13.3186290643965
1626179497914.22,-13.3062962658758
1626179497917.54,-13.3164654155332
1626179497920.87,-13.3083877931103
1626179497924.19,-13.2894198047423
1626179497927.52,-13.3051423198154
1626179497930.85,-13.2988677381119
1626179497934.17,-13.2549456661875
1626179497937.5,-13.2692978703139
1626179497940.83,-13.2902131426588
1626179497944.15,-13.3474777159068
1626179497947.48,-13.3326927820078
1626179497950.81,-13.3227399972367
1626179497954.13,-13.3347121876135
1626179497957.46,-13.3481268105658
1626179497960.78,-13.3166096587908
1626179497964.11,-13.259272963914
1626179497967.44,-13.252205044294
1626179497970.76,-13.2243660955866
1626179497974.09,-13.2014314176358
1626179497977.42,-13.1968156333942
1626179497980.74,-13.1712124551788
1626179497984.07,-13.2128266349824
1626179497987.4,-13.2356891913043
1626179497990.72,-13.2452813679315
1626179497994.05,-13.2823518851223
1626179497997.38,-13.267639072852
1626179498000.7,-13.2925931564084
1626179498004.03,-13.2954058999307
1626179498007.35,-13.3280048761374
1626179498010.68,-13.4044538026397
1626179498014.01,-13.4139017360093
1626179498017.33,-13.394717382755
1626179498020.66,-13.393419193437
1626179498023.99,-13.3834664086659
1626179498027.31,-13.3862791521882
1626179498030.64,-13.3642820554116
1626179498033.97,-13.3521656217773
1626179498037.29,-13.3508674324593
1626179498040.62,-13.398900437224
1626179498043.95,-13.4039489512383
1626179498047.27,-13.3978186127923
1626179498050.6,-13.4246478586969
1626179498053.92,-13.4626559570618
1626179498057.25,-13.4532801453209
1626179498060.58,-13.4717432822875
1626179498063.9,-13.460636551456
1626179498067.23,-13.4607086730848
1626179498070.56,-13.4302012241127
1626179498073.88,-13.4278212103631
1626179498077.21,-13.442966752406
1626179498080.54,-13.4855185133837
1626179498083.86,-13.4713105525149
1626179498087.19,-13.4935240141778
1626179498090.52,-13.5049192315244
1626179498093.84,-13.5442255192072
1626179498097.17,-13.5758869142398
1626179498100.49,-13.6749820321777
1626179498103.82,-13.7846790295457
1626179498107.15,-13.8216774251076
1626179498110.47,-13.8052336937468
1626179498113.8,-13.6586104224456
1626179498117.13,-13.566150494355
1626179498120.45,-13.2631675318679
1626179498123.78,-12.6590046476131
1626179498127.11,-12.305536544983
1626179498130.43,-11.7468102868569
1626179498133.76,-11.59109969033
1626179498137.08,-11.557635254578
1626179498140.41,-11.8516030134681
1626179498143.74,-12.2807988263129
1626179498147.06,-12.5078377136991
1626179498150.39,-13.0566111870541
1626179498153.72,-13.4138296143806
1626179498157.04,-13.4664784033869
1626179498160.37,-13.4532801453209
1626179498163.7,-13.4074829110483
1626179498167.02,-13.4307781971429
1626179498170.35,-13.4674881061897
1626179498173.68,-13.5165308137573
1626179498177,-13.5054962045546
1626179498180.33,-13.3967367883607
1626179498183.65,-13.3994774102542
1626179498186.98,-13.4330139676349
1626179498190.31,-13.470949944371
1626179498193.63,-13.498284041677
1626179498196.96,-13.5083089480768
1626179498200.29,-13.4912882436858
1626179498203.61,-13.4868167027017
1626179498206.94,-13.4910718787994
1626179498210.27,-13.5184059761055
1626179498213.59,-13.5159538407271
1626179498216.92,-13.4891967164513
1626179498220.25,-13.4950385683821
1626179498223.57,-13.4790996884226
1626179498226.9,-13.4915046085721
1626179498230.22,-13.487682162247
1626179498233.55,-13.479316053309
1626179498236.88,-13.503765285464
1626179498240.2,-13.4928749195188
1626179498243.53,-13.5065059073574
1626179498246.86,-13.4953270548972
1626179498250.18,-13.4711663092573
1626179498253.51,-13.4468613203599
1626179498256.84,-13.4389279411945
1626179498260.16,-13.4635214166071
1626179498263.49,-13.4345285218392
1626179498266.82,-13.4336630622939
1626179498270.14,-13.4637377814934
1626179498273.47,-13.4483758745642
1626179498276.79,-13.474483904181
1626179498280.12,-13.4579680511913
1626179498283.45,-13.4456352526707
1626179498286.77,-13.4334466974076
1626179498290.1,-13.4245757370681
1626179498293.43,-13.42623453453
1626179498296.75,-13.4454188877843
1626179498300.08,-13.4270278724465
1626179498303.41,-13.4439764552088
1626179498306.73,-13.4589056323654
1626179498310.06,-13.4122429385475
1626179498313.39,-13.3780572865078
1626179498316.71,-13.3577911088218
1626179498320.04,-13.3205042267447
1626179498323.36,-13.334567944356
1626179498326.69,-13.3362267418178
1626179498330.02,-13.2944683187566
1626179498333.34,-13.2863906963337
1626179498336.67,-13.2744185059569
1626179498340,-13.2266739877074
1626179498343.32,-13.22710671748
1626179498346.65,-13.2095811616875
1626179498349.98,-13.1952289575611
1626179498353.3,-13.1727270093831
1626179498356.63,-13.1199339771192
1626179498359.95,-13.1115678681812
1626179498363.28,-13.1276509913982
1626179498366.61,-13.1505135477201
1626179498369.93,-13.1117121114388
1626179498373.26,-13.0844501357615
1626179498376.59,-13.0835125545874
1626179498379.91,-13.1145969765898
1626179498383.24,-13.1438783578728
1626179498386.57,-13.1752512663902
1626179498389.89,-13.1766936989658
1626179498393.22,-13.2002774715754
1626179498396.55,-13.2196060680873
1626179498399.87,-13.2354007047892
1626179498403.2,-13.2402328539172
1626179498406.52,-13.2775197359943
1626179498409.85,-13.3672390421914
1626179498413.18,-13.3994052886254
1626179498416.5,-13.4186617635085
1626179498419.83,-13.4160653848726
1626179498423.16,-13.4277490887343
1626179498426.48,-13.4545783346389
1626179498429.81,-13.4515492262303
1626179498433.14,-13.4516213478591
1626179498436.46,-13.4938846223217
1626179498439.79,-13.5646359401507
1626179498443.12,-13.6458448941523
1626179498446.44,-13.6330072442302
1626179498449.77,-13.6206744457095
1626179498453.09,-13.6226217296865
1626179498456.42,-13.6574564763852
1626179498459.75,-13.6552928275219
1626179498463.07,-13.685511789979
1626179498466.4,-13.6496673404774
1626179498469.73,-13.6577449629003
1626179498473.05,-13.6643801527477
1626179498476.38,-13.6193041347628
1626179498479.71,-13.629833892564
1626179498483.03,-13.6600528550211
1626179498486.36,-13.7237362532301
1626179498489.69,-13.7309484161077
1626179498493.01,-13.7265489967524
1626179498496.34,-13.7036864404305
1626179498499.66,-13.7162356038374
1626179498502.99,-13.692579709599
1626179498506.32,-13.708662832816
1626179498509.64,-13.6774341675561
1626179498512.97,-13.7271259697826
1626179498516.3,-13.6908487905084
1626179498519.62,-13.7076531300131
1626179498522.95,-13.7225101855409
1626179498526.28,-13.7114034547095
1626179498529.6,-13.7185434959583
1626179498532.93,-13.7385933087579
1626179498536.25,-13.8012670041641
1626179498539.58,-13.8163404245782
1626179498542.91,-13.7942712061728
1626179498546.23,-13.761744351595
1626179498549.56,-13.7560467429217
1626179498552.89,-13.7627540543978
1626179498556.21,-13.7642686086021
1626179498559.54,-13.7551091617476
1626179498562.87,-13.7786208127285
1626179498566.19,-13.7969397064376
1626179498569.52,-13.7664322574654
1626179498572.85,-13.7799190020465
1626179498576.17,-13.7060664541801
1626179498579.5,-13.7036143188017
1626179498582.82,-13.720562901564
1626179498586.15,-13.7279193076991
1626179498589.48,-13.7335447947436
1626179498592.8,-13.7483297286427
1626179498596.13,-13.7103937519066
1626179498599.46,-13.7027488592564
1626179498602.78,-13.7075810083843
1626179498606.11,-13.7023161294837
1626179498609.44,-13.7266932400099
1626179498612.76,-13.7411896873939
1626179498616.09,-13.7895833003024
1626179498619.42,-13.8198743843883
1626179498622.74,-13.8243459253724
1626179498626.07,-13.8016997339368
1626179498629.39,-13.7953530306045
1626179498632.72,-13.7838135700004
1626179498636.05,-13.7895833003024
1626179498639.37,-13.7714086498509
1626179498642.7,-13.7760244340926
1626179498646.03,-13.8011227609065
1626179498649.35,-13.7944875710592
1626179498652.68,-13.7750147312897
1626179498656.01,-13.7712644065934
1626179498659.33,-13.8009063960202
1626179498662.66,-13.7930451384837
1626179498665.99,-13.7725625959113
1626179498669.31,-13.7791256641299
1626179498672.64,-13.7960742468922
1626179498675.96,-13.7706153119344
1626179498679.29,-13.7611673785648
1626179498682.62,-13.8094888698445
1626179498685.94,-13.8368229671506
1626179498689.27,-13.8345150750297
1626179498692.6,-13.836029629234
1626179498695.92,-13.8410060216196
1626179498699.25,-13.8237689523421
1626179498702.58,-13.8314138449924
1626179498705.9,-13.843746643513
1626179498709.23,-13.84569392749
1626179498712.55,-13.8228313711681
1626179498715.88,-13.8065318830647
1626179498719.21,-13.8228313711681
1626179498722.53,-13.8474248465806
1626179498725.86,-13.8319908180226
1626179498729.19,-13.8186483166991
1626179498732.51,-13.880095944416
1626179498735.84,-13.8732443896823
1626179498739.17,-13.8489394007849
1626179498742.49,-13.8548533743445
1626179498745.82,-13.8746868222579
1626179498749.15,-13.8535551850265
1626179498752.47,-13.8794468497571
1626179498755.8,-13.8683401189256
1626179498759.12,-13.8300435340456
1626179498762.45,-13.8411502648771
1626179498765.78,-13.821244695335
1626179498769.1,-13.8505981982467
1626179498772.43,-13.8510309280194
1626179498775.76,-13.8507424415043
1626179498779.08,-13.8458381707475
1626179498782.41,-13.8343708317722
1626179498785.74,-13.839563589044
1626179498789.06,-13.8764898629773
1626179498792.39,-13.8976936218373
1626179498795.72,-13.9266143949764
1626179498799.04,-13.9352689904295
1626179498802.37,-13.8608394695329
1626179498805.69,-13.8480018196108
1626179498809.02,-13.8476412114669
1626179498812.35,-13.8340102236283
1626179498815.67,-13.830908993591
1626179498819,-13.8006900311339
1626179498822.33,-13.752729147998
1626179498825.65,-13.7075088867556
1626179498828.98,-13.7285684023581
1626179498832.31,-13.7670813521244
1626179498835.63,-13.7781880829558
1626179498838.96,-13.7850396376895
1626179498842.29,-13.7923239221959
1626179498845.61,-13.7955693954908
1626179498848.94,-13.7775389882969
1626179498852.26,-13.8187925599566
1626179498855.59,-13.8534830633978
1626179498858.92,-13.8908420671036
1626179498862.24,-13.8839183907412
1626179498865.57,-13.8977657434661
1626179498868.9,-13.9188973806974
1626179498872.22,-13.9217822458484
1626179498875.55,-13.9240901379693
1626179498878.88,-13.8945202701712
1626179498882.2,-13.8857935530893
1626179498885.53,-13.8763456197197
1626179498888.85,-13.9031027439955
1626179498892.18,-13.9207725430456
1626179498895.51,-13.9716904129613
1626179498898.83,-13.9681564531513
1626179498902.16,-13.9731328455368
1626179498905.49,-13.9682285747801
1626179498908.81,-13.9884226308373
1626179498912.14,-13.9845280628834
1626179498915.47,-13.9754407376576
1626179498918.79,-13.9834462384517
1626179498922.12,-13.9949856990559
1626179498925.45,-13.9650552231139
1626179498928.77,-13.9560400195169
1626179498932.1,-13.9597903442133
1626179498935.42,-13.970175858757
1626179498938.75,-13.979191062354
1626179498942.08,-13.9836626033381
1626179498945.4,-14.0438841633659
1626179498948.73,-14.1504078090677
1626179498952.06,-14.2247652083355
1626179498955.38,-14.2606096578371
1626179498958.71,-14.2928480258999
1626179498962.04,-14.2367373987123
1626179498965.36,-14.0660255034
1626179498968.69,-13.7703268254193
1626179498972.02,-13.5286472473916
1626179498975.34,-12.8645512896241
1626179498978.67,-12.1647551256126
1626179498981.99,-11.9754358500762
1626179498985.32,-11.9085069785722
1626179498988.65,-12.1461477453885
1626179498991.97,-12.3742684572063
1626179498995.3,-12.8059885270582
1626179498998.63,-13.3634887174951
1626179499001.95,-13.6297617709353
1626179499005.28,-13.967940088265
1626179499008.61,-14.0264307292021
1626179499011.93,-13.9998178481839
1626179499015.26,-13.9175270697507
1626179499018.59,-13.9133440152817
1626179499021.91,-13.9253883272872
1626179499025.24,-13.9020930411927
1626179499028.56,-13.9075021633508
1626179499031.89,-13.9159403939176
1626179499035.22,-13.9479623970941
1626179499038.54,-13.9217822458484
1626179499041.87,-13.9195464753564
1626179499045.2,-13.9413993288755
1626179499048.52,-13.9098100554717
1626179499051.85,-13.8936548106259
1626179499055.18,-13.9134161369105
1626179499058.5,-13.9538042490249
1626179499061.83,-13.9367835446338
1626179499065.16,-13.8922123780504
1626179499068.48,-13.9403175044438
1626179499071.81,-13.9279847059232
1626179499075.13,-13.8749031871442
1626179499078.46,-13.9062760956617
1626179499081.79,-13.9152912992586
1626179499085.11,-13.9835183600805
1626179499088.44,-13.9985917804947
1626179499091.77,-13.978541967695
1626179499095.09,-13.9622424795917
1626179499098.42,-13.9568333574335
1626179499101.75,-13.9239458947117
1626179499105.07,-13.9049779063437
1626179499108.4,-13.874975308773
1626179499111.72,-13.8737492410838
1626179499115.05,-13.8729559031672
1626179499118.38,-13.8769947143787
1626179499121.7,-13.8736049978262
1626179499125.03,-13.8733886329399
1626179499128.36,-13.8702874029025
1626179499131.68,-13.8618491723358
1626179499135.01,-13.8503818333604
1626179499138.34,-13.8110034240488
1626179499141.66,-13.7991754769296
1626179499144.99,-13.8288895879852
1626179499148.32,-13.8600461316164
1626179499151.64,-13.8737492410838
1626179499154.97,-13.8510309280194
1626179499158.29,-13.8185040734415
1626179499161.62,-13.7975166794678
1626179499164.95,-13.7596528243605
1626179499168.27,-13.7435697011435
1626179499171.6,-13.7590037297015
1626179499174.93,-13.7369345112961
1626179499178.25,-13.7243132262603
1626179499181.58,-13.7245295911467
1626179499184.91,-13.6757753700942
1626179499188.23,-13.6565910168399
1626179499191.56,-13.6405078936229
1626179499194.89,-13.6184386752175
1626179499198.21,-13.6022113087429
1626179499201.54,-13.5998312949933
1626179499204.86,-13.5678814134456
1626179499208.19,-13.5647080617795
1626179499211.52,-13.5173962733026
1626179499214.84,-13.5080925831905
1626179499218.17,-13.4994379877374
1626179499221.5,-13.4811912156571
1626179499224.82,-13.456453496987
1626179499228.15,-13.4434716038074
1626179499231.48,-13.4770081611881
1626179499234.8,-13.4598432135395
1626179499238.13,-13.4938846223217
1626179499241.46,-13.5466055329568
1626179499244.78,-13.5805026984814
1626179499248.11,-13.5997591733645
1626179499251.43,-13.6131737963168
1626179499254.76,-13.6852954250926
1626179499258.09,-13.7297944700473
1626179499261.41,-13.745012133719
1626179499264.74,-13.802276706967
1626179499268.07,-13.8227592495393
1626179499271.39,-13.8422320893087
1626179499274.72,-13.8819711067642
1626179499278.05,-13.8934384457396
1626179499281.37,-13.9172385832356
1626179499284.7,-13.9372883960352
1626179499288.02,-13.9458708698596
1626179499291.35,-13.9418320586481
1626179499294.68,-13.9575545737212
1626179499298,-13.9487557350106
1626179499301.33,-13.9923893204199
1626179499304.66,-14.0159730930296
1626179499307.98,-14.0221034314756
1626179499311.31,-13.9787583325813
1626179499314.64,-14.015540363257
1626179499317.96,-14.0104918492427
1626179499321.29,-14.0293877159819
1626179499324.62,-14.0201561474986
1626179499327.94,-14.0109967006441
1626179499331.27,-14.0577315160908
1626179499334.59,-14.0119342818182
1626179499337.92,-14.0133767143937
1626179499341.25,-13.9995293616688
1626179499344.57,-14.0187137149231
1626179499347.9,-14.0378259465487
1626179499351.23,-14.0373210951473
1626179499354.55,-14.0293877159819
1626179499357.88,-14.0425859740479
1626179499361.21,-14.0397732305256
1626179499364.53,-14.0253489047705
1626179499367.86,-14.0236901073086
1626179499371.19,-13.9951299423134
1626179499374.51,-13.9913074959883
1626179499377.84,-14.010708214129
1626179499381.16,-14.0332822839358
1626179499384.49,-14.0158288497721
1626179499387.82,-14.0279452834064
1626179499391.14,-14.070857652528
1626179499394.47,-14.0732376662776
1626179499397.8,-14.0501587450694
1626179499401.12,-14.0259979994295
1626179499404.45,-14.0285222564366
1626179499407.78,-14.0479950962061
1626179499411.1,-14.0513848127585
1626179499414.43,-14.0266470940884
1626179499417.76,-14.0018372537896
1626179499421.08,-13.9956347937149
1626179499424.41,-14.0109967006441
1626179499427.73,-14.0077512273492
1626179499431.06,-14.0064530380312
1626179499434.39,-13.985609887315
1626179499437.71,-13.9892880903826
1626179499441.04,-14.0122948899621
1626179499444.37,-14.0315513648452
1626179499447.69,-14.0243392019676
1626179499451.02,-14.0048663621982
1626179499454.35,-13.9846723061409
1626179499457.67,-13.9989523886385
1626179499461,-14.0436677984795
1626179499464.32,-14.0609048677569
1626179499467.65,-14.0508799613571
1626179499470.98,-14.0484999476075
1626179499474.3,-14.0398453521544
1626179499477.63,-14.021959188218
1626179499480.96,-14.0642224626806
1626179499484.28,-14.0492211638953
1626179499487.61,-14.0294598376107
1626179499490.94,-14.0519617857887
1626179499494.26,-14.0526830020765
1626179499497.59,-14.0356622976854
1626179499500.92,-14.0041451459104
1626179499504.24,-14.0118621601894
1626179499507.57,-14.0195070528396
1626179499510.89,-14.0578036377196
1626179499514.22,-14.0716509904445
1626179499517.55,-14.0925662627895
1626179499520.87,-14.0940808169938
1626179499524.2,-14.1038172368785
1626179499527.53,-14.0668909629453
1626179499530.85,-14.0609769893857
1626179499534.18,-14.0484999476075
1626179499537.51,-14.0450381094263
1626179499540.83,-14.0404944468134
1626179499544.16,-14.0600394082116
1626179499547.49,-14.0616260840447
1626179499550.81,-14.0502308666981
1626179499554.14,-14.0485720692363
1626179499557.46,-14.0800170993825
1626179499560.79,-14.0710740174143
1626179499564.12,-14.0772043558603
1626179499567.44,-14.0404223251846
1626179499570.77,-14.0360229058293
1626179499574.1,-14.0268634589748
1626179499577.42,-14.0668909629453
1626179499580.75,-14.0854983431695
1626179499584.08,-14.084705005253
1626179499587.4,-14.0831183294199
1626179499590.73,-14.0974705335463
1626179499594.06,-14.1012208582426
1626179499597.38,-14.1039614801361
1626179499600.71,-14.1153566974827
1626179499604.03,-14.0894650327522
1626179499607.36,-14.0767716260876
1626179499610.69,-14.0821807482458
1626179499614.01,-14.0844165187379
1626179499617.34,-14.0995620607808
1626179499620.67,-14.0591739486663
1626179499623.99,-14.0490769206377
1626179499627.32,-14.0571545430606
1626179499630.65,-14.0692709766949
1626179499633.97,-14.0723000851035
1626179499637.3,-14.0635012463929
1626179499640.62,-14.0800170993825
1626179499643.95,-14.0680449090058
1626179499647.28,-14.0436677984795
1626179499650.6,-14.056072718629
1626179499653.93,-14.0759061665423
1626179499657.26,-14.049293285524
1626179499660.58,-13.9958511586012
1626179499663.91,-13.9776043865209
1626179499667.24,-13.9680843315225
1626179499670.56,-13.9282010708095
1626179499673.89,-13.9416156937618
1626179499677.22,-13.9779649946648
1626179499680.54,-13.982725022164
1626179499683.87,-14.0208052421576
1626179499687.19,-14.0043615107967
1626179499690.52,-14.0230410126497
1626179499693.85,-14.0145306604541
1626179499697.17,-14.0594624351814
1626179499700.5,-14.0803055858976
1626179499703.83,-14.130357996268
1626179499707.15,-14.1150682109676
1626179499710.48,-14.1149960893388
1626179499713.81,-14.1479556736893
1626179499717.13,-14.1229294685041
1626179499720.46,-14.1116784944151
1626179499723.79,-14.152571457931
1626179499727.11,-14.0764110179437
1626179499730.44,-14.0541975562808
1626179499733.76,-14.0844165187379
1626179499737.09,-14.1582690666043
1626179499740.42,-14.1800497984946
1626179499743.74,-14.2325543442433
1626179499747.07,-14.1907959211821
1626179499750.4,-14.1900747048944
1626179499753.72,-14.1643994050502
1626179499757.05,-14.2093311797775
1626179499760.38,-14.2029844764453
1626179499763.7,-14.2106293690955
1626179499767.03,-14.211422707012
1626179499770.36,-14.1848098259938
1626179499773.68,-14.1799776768658
1626179499777.01,-14.1848098259938
1626179499780.33,-14.1913728942124
1626179499783.66,-14.1843049745923
1626179499786.99,-14.21272089633
1626179499790.31,-14.2386846826893
1626179499793.64,-14.3243651776749
1626179499796.97,-14.4310330666343
1626179499800.29,-14.4533907715548
1626179499803.62,-14.5133238450675
1626179499806.95,-14.4300233638314
1626179499810.27,-14.3663399656224
1626179499813.6,-14.0912680734716
1626179499816.93,-13.603797984576
1626179499820.25,-13.280188236259
1626179499823.58,-12.4755993456363
1626179499826.9,-12.0473411139656
1626179499830.23,-12.0280846390825
1626179499833.56,-12.1911516417446
1626179499836.88,-12.6926133266226
1626179499840.21,-12.9533330146471
1626179499843.54,-13.5125641241746
1626179499846.86,-13.9507751406163
1626179499850.19,-14.1060530073706
1626179499853.52,-14.1804825282672
1626179499856.84,-14.1038172368785
1626179499860.17,-14.0924941411607
1626179499863.49,-14.0700643146115
1626179499866.82,-14.0494375287816
1626179499870.15,-14.0479950962061
1626179499873.47,-14.0297483241258
1626179499876.8,-14.075689801656
1626179499880.13,-14.0906189788126
1626179499883.45,-14.0734540311639
1626179499886.78,-14.1242997794509
1626179499890.11,-14.1270404013443
1626179499893.43,-14.1175203463459
1626179499896.76,-14.1082166562339
1626179499900.09,-14.1053317910828
1626179499903.41,-14.102374804303
1626179499906.74,-14.1195397519517
1626179499910.06,-14.1165106435431
1626179499913.39,-14.122640981989
1626179499916.72,-14.0973262902887
1626179499920.04,-14.0823249915034
1626179499923.37,-14.0546302860535
1626179499926.7,-14.06955946321
1626179499930.02,-14.0632848815065
1626179499933.35,-14.06955946321
1626179499936.68,-14.0609769893857
1626179499940,-14.0677564224906
1626179499943.33,-14.0653042871123
1626179499946.66,-14.0591739486663
1626179499949.98,-14.0381865546926
1626179499953.31,-14.0479229745773
1626179499956.63,-14.0425859740479
1626179499959.96,-14.0663139899151
1626179499963.29,-14.0257816345431
1626179499966.61,-14.0012602807594
1626179499969.94,-14.0133045927649
1626179499973.27,-13.9962117667451
1626179499976.59,-14.0308301485574
1626179499979.92,-14.0421532442752
1626179499983.25,-13.9708970750448
1626179499986.57,-13.9587085197817
1626179499989.9,-13.9790468190964
1626179499993.23,-13.95055877573
1626179499996.55,-13.9751522511425
1626179499999.88,-13.94349085611
1626179500003.2,-13.9019487979351
1626179500006.53,-13.917743434637
1626179500009.86,-13.9008669735035
1626179500013.18,-13.8813220121052
1626179500016.51,-13.8673304161227
1626179500019.84,-13.8493000089288
1626179500023.16,-13.8047288423453
1626179500026.49,-13.8005457878763
1626179500029.82,-13.7650619465187
1626179500033.14,-13.7670092304956
1626179500036.47,-13.7537388508009
1626179500039.79,-13.7241689830028
1626179500043.12,-13.7149374145195
1626179500046.45,-13.6951039666061
1626179500049.77,-13.6462055022962
1626179500053.1,-13.6035816196897
1626179500056.43,-13.5924027672294
1626179500059.75,-13.5704777920816
1626179500063.08,-13.5861281855259
1626179500066.41,-13.5679535350744
1626179500069.73,-13.5818008877994
1626179500073.06,-13.5880033478741
1626179500076.39,-13.5996870517358
1626179500079.71,-13.5861281855259
1626179500083.04,-13.6054567820378
1626179500086.36,-13.6187271617326
1626179500089.69,-13.6580334494154
1626179500093.02,-13.6889736281602
1626179500096.34,-13.6827711680855
1626179500099.67,-13.7340496461451
1626179500103,-13.7988148687857
1626179500106.32,-13.8523291173374
1626179500109.65,-13.8862984044908
1626179500112.98,-13.9262537868325
1626179500116.3,-13.9556794113731
1626179500119.63,-13.9394520448985
1626179500122.96,-13.9768110486044
1626179500126.28,-13.9977984425781
1626179500129.61,-14.0187137149231
1626179500132.93,-14.0127997413635
1626179500136.26,-14.012943984621
1626179500139.59,-13.9582036683802
1626179500142.91,-13.967940088265
1626179500146.24,-13.9890717254963
1626179500149.57,-14.0863638027148
1626179500152.89,-14.1356228751687
1626179500156.22,-14.1527157011885
1626179500159.55,-14.1762994737982
1626179500162.87,-14.1227131036178
1626179500166.2,-14.140671389183
1626179500169.53,-14.1255258471401
1626179500172.85,-14.10432208828
1626179500176.18,-14.1132651702482
1626179500179.5,-14.1037451152498
1626179500182.83,-14.1240112929358
1626179500186.16,-14.1136257783921
1626179500189.48,-14.0919171681305
1626179500192.81,-14.0836953024501
1626179500196.14,-14.076338896315
1626179500199.46,-14.0731655446488
1626179500202.79,-14.0918450465018
1626179500206.12,-14.1543023770216
1626179500209.44,-14.1189627789215
1626179500212.77,-14.1033123854771
1626179500216.09,-14.0887438164644
1626179500219.42,-14.0710018957856
1626179500222.75,-14.082757721276
1626179500226.07,-14.0940808169938
1626179500229.4,-14.1160057921417
1626179500232.73,-14.1186021707776
1626179500236.05,-14.0933596007061
1626179500239.38,-14.1029517773332
1626179500242.71,-14.1024469259318
1626179500246.03,-14.1318725504723
1626179500249.36,-14.1620915129294
1626179500252.69,-14.1457920248261
1626179500256.01,-14.142258065016
1626179500259.34,-14.1301416313817
1626179500262.66,-14.1162942786568
1626179500265.99,-14.1167991300582
1626179500269.32,-14.0926383844183
1626179500272.64,-14.0870128973738
1626179500275.97,-14.0810989238142
1626179500279.3,-14.0503029883269
1626179500282.62,-14.0480672178349
1626179500285.95,-14.0517454209024
1626179500289.28,-14.0715788688158
1626179500292.6,-14.0531878534779
1626179500295.93,-14.067323692718
1626179500299.26,-14.0899698841536
1626179500302.58,-14.1362719698276
1626179500305.91,-14.1426186731599
1626179500309.23,-14.1314398206997
1626179500312.56,-14.1480277953181
1626179500315.89,-14.1368489428579
1626179500319.21,-14.1343968074795
1626179500322.54,-14.1137700216496
1626179500325.87,-14.124588265966
1626179500329.19,-14.0899698841536
1626179500332.52,-14.1118227376727
1626179500335.85,-14.1102360618396
1626179500339.17,-14.092422019532
1626179500342.5,-14.0874456271464
1626179500345.83,-14.0867244108587
1626179500349.15,-14.1253094822537
1626179500352.48,-14.1171597382021
1626179500355.8,-14.1262470634278
1626179500359.13,-14.1314398206997
1626179500362.46,-14.1240112929358
1626179500365.78,-14.1227852252466
1626179500369.11,-14.098840844493
1626179500372.44,-14.0858589513134
1626179500375.76,-14.0906189788126
1626179500379.09,-14.0735261527927
1626179500382.42,-14.0764831395725
1626179500385.74,-14.0778534505193
1626179500389.07,-14.11845792752
1626179500392.4,-14.1398780512664
1626179500395.72,-14.1615145398992
1626179500399.05,-14.1747849195939
1626179500402.37,-14.1688709460343
1626179500405.7,-14.1425465515311
1626179500409.03,-14.1366325779715
1626179500412.35,-14.1398780512664
1626179500415.68,-14.1247325092235
1626179500419.01,-14.109154237408
1626179500422.33,-14.0929989925622
1626179500425.66,-14.0820365049883
1626179500428.99,-14.0976868984326
1626179500432.31,-14.1296367799803
1626179500435.64,-14.1323774018738
1626179500438.96,-14.1373537942593
1626179500442.29,-14.1254537255113
1626179500445.62,-14.1325216451313
1626179500448.94,-14.1641109185351
1626179500452.27,-14.1775976631162
1626179500455.6,-14.1676448783451
1626179500458.92,-14.1460805113412
1626179500462.25,-14.1553120798245
1626179500465.58,-14.1436283759628
1626179500468.9,-14.1292761718364
1626179500472.23,-14.1309349692982
1626179500475.56,-14.0701364362402
1626179500478.88,-14.0899698841536
1626179500482.21,-14.1045384531663
1626179500485.53,-14.1192512654366
1626179500488.86,-14.1219197657013
1626179500492.19,-14.0924941411607
1626179500495.51,-14.0151076334843
1626179500498.84,-13.9967166181465
1626179500502.17,-14.0162615795447
1626179500505.49,-14.0528272453341
1626179500508.82,-14.0492211638953
1626179500512.15,-14.0632848815065
1626179500515.47,-14.0857868296846
1626179500518.8,-14.094008695365
1626179500522.13,-14.0729491797625
1626179500525.45,-14.0821807482458
1626179500528.78,-14.0791516398372
1626179500532.1,-14.1335313479342
1626179500535.43,-14.2157500047386
1626179500538.76,-14.2518108191265
1626179500542.08,-14.2612587524961
1626179500545.41,-14.265802415109
1626179500548.74,-14.2636387662457
