ts,ecg
1626177986866.46,-14.4216572548935
1626177986869.78,-14.4523089471232
1626177986873.11,-14.4590883802281
1626177986876.43,-14.4584392855691
1626177986879.76,-14.4781284902249
1626177986883.09,-14.4934903971541
1626177986886.41,-14.4760369629904
1626177986889.74,-14.4834654907543
1626177986893.07,-14.4949328297297
1626177986896.39,-14.4976734516231
1626177986899.72,-14.5048134928719
1626177986903.05,-14.5111601962042
1626177986906.37,-14.5157038588171
1626177986909.7,-14.509285033856
1626177986913.02,-14.5235651163536
1626177986916.35,-14.5311378873751
1626177986919.68,-14.514766277643
1626177986923,-14.5206081295738
1626177986926.33,-14.5226996568083
1626177986929.66,-14.5185887239681
1626177986932.98,-14.5348160904427
1626177986936.31,-14.5545052950985
1626177986939.64,-14.5377009555937
1626177986942.96,-14.5541446869546
1626177986946.29,-14.5519089164625
1626177986949.62,-14.5190935753695
1626177986952.94,-14.5568853088481
1626177986956.27,-14.5402252126009
1626177986959.59,-14.5568131872193
1626177986962.92,-14.5408743072598
1626177986966.25,-14.5154874939308
1626177986969.57,-14.5379894421088
1626177986972.9,-14.53791732048
1626177986976.23,-14.5265221031335
1626177986979.55,-14.5560919709315
1626177986982.88,-14.5652514177861
1626177986986.21,-14.5369076176772
1626177986989.53,-14.5514040650611
1626177986992.86,-14.5416676451764
1626177986996.19,-14.5618617012336
1626177986999.51,-14.5229160216947
1626177987002.84,-14.5661168773314
1626177987006.16,-14.5666938503616
1626177987009.49,-14.5446246319562
1626177987012.82,-14.5375567123361
1626177987016.14,-14.5483028350237
1626177987019.47,-14.5056068307885
1626177987022.8,-14.5248633056716
1626177987026.12,-14.540513699116
1626177987029.45,-14.551115578546
1626177987032.78,-14.5513319434323
1626177987036.1,-14.5635204986954
1626177987039.43,-14.5719587292622
1626177987042.76,-14.5708047832018
1626177987046.08,-14.5407300640023
1626177987049.41,-14.544696753585
1626177987052.73,-14.5656841475587
1626177987056.06,-14.5390712665404
1626177987059.39,-14.5806133247153
1626177987062.71,-14.5578228900221
1626177987066.04,-14.5611404849458
1626177987069.37,-14.5272433194212
1626177987072.69,-14.5286857519967
1626177987076.02,-14.5490240513115
1626177987079.35,-14.5714538778608
1626177987082.67,-14.5470767673346
1626177987086,-14.5770072432765
1626177987089.32,-14.540513699116
1626177987092.65,-14.5550101464999
1626177987095.98,-14.5733290402089
1626177987099.3,-14.5702278101716
1626177987102.63,-14.5573180386207
1626177987105.96,-14.5555871195301
1626177987109.28,-14.5714538778608
1626177987112.61,-14.5806854463441
1626177987115.94,-14.5690738641112
1626177987119.26,-14.5800363516851
1626177987122.59,-14.5654677826724
1626177987125.92,-14.5746272295269
1626177987129.24,-14.5857339603584
1626177987132.57,-14.5852291089569
1626177987135.89,-14.5789545272535
1626177987139.22,-14.6085243950515
1626177987142.55,-14.5881860957368
1626177987145.87,-14.5943885558115
1626177987149.2,-14.6020334484617
1626177987152.53,-14.6120583548615
1626177987155.85,-14.5870321496763
1626177987159.18,-14.6051346784991
1626177987162.51,-14.5997255563409
1626177987165.83,-14.5723914590349
1626177987169.16,-14.6044134622113
1626177987172.49,-14.6168183823607
1626177987175.81,-14.5793151353973
1626177987179.14,-14.6201359772844
1626177987182.46,-14.6072983273623
1626177987185.79,-14.6023940566056
1626177987189.12,-14.6164577742169
1626177987192.44,-14.6272760185332
1626177987195.77,-14.6062886245595
1626177987199.1,-14.6465324934164
1626177987202.42,-14.6202080989132
1626177987205.75,-14.5968406911898
1626177987209.08,-14.6083080301652
1626177987212.4,-14.6047019487264
1626177987215.73,-14.5986437319092
1626177987219.06,-14.6152317065277
1626177987222.38,-14.6117698683464
1626177987225.71,-14.622515991034
1626177987229.03,-14.6079474220213
1626177987232.36,-14.6164577742169
1626177987235.69,-14.6197032475118
1626177987239.01,-14.6026104214919
1626177987242.34,-14.626699045503
1626177987245.67,-14.5899170148274
1626177987248.99,-14.598715853538
1626177987252.32,-14.605783773158
1626177987255.65,-14.6087407599379
1626177987258.97,-14.6135007874371
1626177987262.3,-14.6135007874371
1626177987265.62,-14.6055674082717
1626177987268.95,-14.6094619762256
1626177987272.28,-14.5977061507352
1626177987275.6,-14.604197097325
1626177987278.93,-14.6389597223949
1626177987282.26,-14.6087407599379
1626177987285.58,-14.5831375817224
1626177987288.91,-14.5695065938838
1626177987292.24,-14.5747714727845
1626177987295.56,-14.5789545272535
1626177987298.89,-14.5549380248711
1626177987302.22,-14.5271711977924
1626177987305.54,-14.5207523728314
1626177987308.87,-14.5077704796517
1626177987312.19,-14.4826721528378
1626177987315.52,-14.4476931628815
1626177987318.85,-14.4499289333736
1626177987322.17,-14.4229554442114
1626177987325.5,-14.444952540988
1626177987328.83,-14.4670938810222
1626177987332.15,-14.4841145854133
1626177987335.48,-14.465218718674
1626177987338.81,-14.4831770042392
1626177987342.13,-14.5449852401001
1626177987345.46,-14.5571016737344
1626177987348.79,-14.5646744447558
1626177987352.11,-14.5939558260388
1626177987355.44,-14.5943885558115
1626177987358.76,-14.5996534347121
1626177987362.09,-14.6300166404267
1626177987365.42,-14.5952540153568
1626177987368.74,-14.6076589355062
1626177987372.07,-14.6610289408003
1626177987375.4,-14.6227323559204
1626177987378.72,-14.6349930328122
1626177987382.05,-14.6221553828902
1626177987385.38,-14.6220111396326
1626177987388.7,-14.6493452369386
1626177987392.03,-14.6414839794021
1626177987395.36,-14.6577834675054
1626177987398.68,-14.6863436325006
1626177987402.01,-14.6365075870165
1626177987405.33,-14.6379500195921
1626177987408.66,-14.6442967229243
1626177987411.99,-14.6704047525412
1626177987415.31,-14.6591537784521
1626177987418.64,-14.6577113458766
1626177987421.97,-14.6345603030396
1626177987425.29,-14.6559083051572
1626177987428.62,-14.6635531978075
1626177987431.95,-14.6822326996604
1626177987435.27,-14.7581767747613
1626177987438.6,-14.8150086182366
1626177987441.93,-14.9179983041284
1626177987445.25,-14.9860811216928
1626177987448.58,-14.9795180534742
1626177987451.9,-14.8845338683765
1626177987455.23,-14.7220438387446
1626177987458.56,-14.5904939878576
1626177987461.88,-14.1360556049413
1626177987465.21,-13.3851252061278
1626177987468.54,-13.0007890463816
1626177987471.86,-12.5746223419455
1626177987475.19,-12.5548610156609
1626177987478.52,-12.6493403493572
1626177987481.84,-13.0988744615167
1626177987485.17,-13.3328370252653
1626177987488.49,-13.7987427471569
1626177987491.82,-14.2066626795128
1626177987495.15,-14.3881206975127
1626177987498.47,-14.5470046457058
1626177987501.8,-14.5111601962042
1626177987505.13,-14.477767882081
1626177987508.45,-14.4732963410969
1626177987511.78,-14.5082753310532
1626177987515.11,-14.5466440375619
1626177987518.43,-14.5555149979013
1626177987521.76,-14.5537119571819
1626177987525.09,-14.5664774854752
1626177987528.41,-14.5849406224418
1626177987531.74,-14.5611404849458
1626177987535.06,-14.5563804574466
1626177987538.39,-14.5845078926692
1626177987541.72,-14.5808296896016
1626177987545.04,-14.5752042025571
1626177987548.37,-14.6195590042542
1626177987551.7,-14.596480083046
1626177987555.02,-14.5867436631612
1626177987558.35,-14.6117698683464
1626177987561.68,-14.6055674082717
1626177987565,-14.6031152728933
1626177987568.33,-14.5806854463441
1626177987571.66,-14.5834260682376
1626177987574.98,-14.5809739328592
1626177987578.31,-14.5847242575555
1626177987581.63,-14.538566415139
1626177987584.96,-14.5646744447558
1626177987588.29,-14.5932346097511
1626177987591.61,-14.5871042713051
1626177987594.94,-14.5778727028218
1626177987598.27,-14.5752763241859
1626177987601.59,-14.5521252813489
1626177987604.92,-14.5377730772225
1626177987608.25,-14.5470767673346
1626177987611.57,-14.5443361454411
1626177987614.9,-14.5508270920309
1626177987618.23,-14.5496010243417
1626177987621.55,-14.5256566435881
1626177987624.88,-14.5312100090039
1626177987628.2,-14.4972407218505
1626177987631.53,-14.5021449926072
1626177987634.86,-14.498683154426
1626177987638.18,-14.5024334791223
1626177987641.51,-14.4814460851486
1626177987644.84,-14.4595932316295
1626177987648.16,-14.4622617318942
1626177987651.49,-14.4466113384499
1626177987654.82,-14.440769486519
1626177987658.14,-14.4161760111065
1626177987661.47,-14.4061511047067
1626177987664.79,-14.4326918640961
1626177987668.12,-14.4069444426232
1626177987671.45,-14.3866782649372
1626177987674.77,-14.3620126678959
1626177987678.1,-14.3408089090358
1626177987681.43,-14.3287645970302
1626177987684.75,-14.3081378112004
1626177987688.08,-14.2749618619635
1626177987691.41,-14.256787211512
1626177987694.73,-14.2615472390112
1626177987698.06,-14.2369537635987
1626177987701.39,-14.203705692733
1626177987704.71,-14.1991620301201
1626177987708.04,-14.1933922998181
1626177987711.36,-14.1553120798245
1626177987714.69,-14.1639666752776
1626177987718.02,-14.1478835520606
1626177987721.34,-14.1418253352434
1626177987724.67,-14.1431235245614
1626177987728,-14.144205348993
1626177987731.32,-14.1315119423284
1626177987734.65,-14.1500472009238
1626177987737.98,-14.1801219201233
1626177987741.3,-14.1550235933094
1626177987744.63,-14.208537841861
1626177987747.96,-14.2074560174294
1626177987751.28,-14.2549120491638
1626177987754.61,-14.3022238376407
1626177987757.93,-14.316936649911
1626177987761.26,-14.3512665452083
1626177987764.59,-14.3674939116828
1626177987767.91,-14.4129305378116
1626177987771.24,-14.4546889608728
1626177987774.57,-14.4460343654197
1626177987777.89,-14.4904612887456
1626177987781.22,-14.5088523040834
1626177987784.55,-14.4901728022305
1626177987787.87,-14.4932740322678
1626177987791.2,-14.5032268170389
1626177987794.53,-14.5309215224888
1626177987797.85,-14.551115578546
1626177987801.18,-14.5648186880134
1626177987804.5,-14.5629435256652
1626177987807.83,-14.5706605399442
1626177987811.16,-14.6032595161509
1626177987814.48,-14.5551543897574
1626177987817.81,-14.5770072432765
1626177987821.14,-14.5892679201684
1626177987824.46,-14.5735454050953
1626177987827.79,-14.5690017424824
1626177987831.12,-14.5806854463441
1626177987834.44,-14.6119862332328
1626177987837.77,-14.5928740016072
1626177987841.09,-14.599364948197
1626177987844.42,-14.5956146235007
1626177987847.75,-14.5719587292622
1626177987851.07,-14.6102553141421
1626177987854.4,-14.6168183823607
1626177987857.73,-14.5957588667582
1626177987861.05,-14.605783773158
1626177987864.38,-14.6101110708846
1626177987867.71,-14.6038364891811
1626177987871.03,-14.598715853538
1626177987874.36,-14.6098225843695
1626177987877.69,-14.6305936134569
1626177987881.01,-14.5962637181596
1626177987884.34,-14.6298002755404
1626177987887.66,-14.6036201242948
1626177987890.99,-14.5950376504705
1626177987894.32,-14.6087407599379
1626177987897.64,-14.6274923834196
1626177987900.97,-14.6470373448178
1626177987904.3,-14.5997976779697
1626177987907.62,-14.6117698683464
1626177987910.95,-14.5977782723639
1626177987914.28,-14.608380151794
1626177987917.6,-14.5974176642201
1626177987920.93,-14.6067213543321
1626177987924.26,-14.6096062194832
1626177987927.58,-14.6029710296358
1626177987930.91,-14.6191983961103
1626177987934.23,-14.6146547334975
1626177987937.56,-14.6263384373591
1626177987940.89,-14.6166741391032
1626177987944.21,-14.5910709608878
1626177987947.54,-14.6357142491
1626177987950.87,-14.6072983273623
1626177987954.19,-14.5838587980102
1626177987957.52,-14.5984994886517
1626177987960.85,-14.5988600967956
1626177987964.17,-14.6124910846342
1626177987967.5,-14.5886909471382
1626177987970.83,-14.6085243950515
1626177987974.15,-14.5876091227065
1626177987977.48,-14.57267994555
1626177987980.8,-14.5731126753226
1626177987984.13,-14.5991485833107
1626177987987.46,-14.6088128815666
1626177987990.78,-14.5930182448647
1626177987994.11,-14.5853012305857
1626177987997.44,-14.6171789905046
1626177988000.76,-14.5832097033512
1626177988004.09,-14.6034758810372
1626177988007.42,-14.5914315690317
1626177988010.74,-14.5989322184243
1626177988014.07,-14.6021055700905
1626177988017.4,-14.6228765991779
1626177988020.72,-14.5811902977455
1626177988024.05,-14.6325408974339
1626177988027.37,-14.5869600280476
1626177988030.7,-14.6111928953162
1626177988034.03,-14.5996534347121
1626177988037.35,-14.6015285970603
1626177988040.68,-14.6298002755404
1626177988044.01,-14.6067213543321
1626177988047.33,-14.6007352591437
1626177988050.66,-14.5946049206978
1626177988053.99,-14.598066758879
1626177988057.31,-14.5995813130833
1626177988060.64,-14.5939558260388
1626177988063.96,-14.6131401792932
1626177988067.29,-14.6264105589879
1626177988070.62,-14.602898908007
1626177988073.94,-14.6115535034601
1626177988077.27,-14.604197097325
1626177988080.6,-14.6267711671318
1626177988083.92,-14.5959031100158
1626177988087.25,-14.6152317065277
1626177988090.58,-14.6282135997073
1626177988093.9,-14.6089571248242
1626177988097.23,-14.6238863019808
1626177988100.56,-14.592297028577
1626177988103.88,-14.5959031100158
1626177988107.21,-14.5959031100158
1626177988110.53,-14.6073704489911
1626177988113.86,-14.6071540841048
1626177988117.19,-14.5915758122892
1626177988120.51,-14.5996534347121
1626177988123.84,-14.5910709608878
1626177988127.17,-14.5974897858488
1626177988130.49,-14.5987879751668
1626177988133.82,-14.5959752316445
1626177988137.15,-14.6075146922487
1626177988140.47,-14.6246075182685
1626177988143.8,-14.5767908783902
1626177988147.13,-14.5956146235007
1626177988150.45,-14.5997255563409
1626177988153.78,-14.5949655288417
1626177988157.1,-14.5757090539585
1626177988160.43,-14.605783773158
1626177988163.76,-14.5897727715698
1626177988167.08,-14.5996534347121
1626177988170.41,-14.5985716102805
1626177988173.74,-14.6162414093305
1626177988177.06,-14.6274202617908
1626177988180.39,-14.5992928265682
1626177988183.72,-14.6135729090658
1626177988187.04,-14.6191262744816
1626177988190.37,-14.6089571248242
1626177988193.7,-14.5829933384649
1626177988197.02,-14.5829212168361
1626177988200.35,-14.5866715415325
1626177988203.67,-14.5982110021366
1626177988207,-14.6081637869076
1626177988210.33,-14.5921527853194
1626177988213.65,-14.6088850031954
1626177988216.98,-14.6062165029307
1626177988220.31,-14.6063607461883
1626177988223.63,-14.6155201930428
1626177988226.96,-14.607081962476
1626177988230.29,-14.6032595161509
1626177988233.61,-14.5885467038806
1626177988236.94,-14.5820557572908
1626177988240.26,-14.5834260682376
1626177988243.59,-14.5900612580849
1626177988246.92,-14.5902776229713
1626177988250.24,-14.602249813348
1626177988253.57,-14.596480083046
1626177988256.9,-14.5979225156215
1626177988260.22,-14.5798921084275
1626177988263.55,-14.5972734209625
1626177988266.88,-14.6026104214919
1626177988270.2,-14.5785939191096
1626177988273.53,-14.5891236769108
1626177988276.86,-14.6039807324387
1626177988280.18,-14.5860224468735
1626177988283.51,-14.5954703802431
1626177988286.83,-14.5860945685023
1626177988290.16,-14.594532799069
1626177988293.49,-14.5821278789196
1626177988296.81,-14.5889073120245
1626177988300.14,-14.5858060819872
1626177988303.47,-14.580396959829
1626177988306.79,-14.58328182498
1626177988310.12,-14.5897727715698
1626177988313.45,-14.587464879449
1626177988316.77,-14.5858782036159
1626177988320.1,-14.6025382998631
1626177988323.43,-14.608380151794
1626177988326.75,-14.5984273670229
1626177988330.08,-14.5664053638465
1626177988333.4,-14.5824884870635
1626177988336.73,-14.5977061507352
1626177988340.06,-14.614798976755
1626177988343.38,-14.6047019487264
1626177988346.71,-14.5928018799784
1626177988350.04,-14.598066758879
1626177988353.36,-14.5857339603584
1626177988356.69,-14.5943885558115
1626177988360.02,-14.5997255563409
1626177988363.34,-14.5973455425913
1626177988366.67,-14.5904218662288
1626177988370,-14.608380151794
1626177988373.32,-14.6057116515293
1626177988376.65,-14.5800363516851
1626177988379.97,-14.5914315690317
1626177988383.3,-14.5801084733139
1626177988386.63,-14.5658283908163
1626177988389.95,-14.5809018112304
1626177988393.28,-14.5849406224418
1626177988396.61,-14.6238863019808
1626177988399.93,-14.5762860269887
1626177988403.26,-14.5672708233918
1626177988406.59,-14.5377730772225
1626177988409.91,-14.5180117509379
1626177988413.24,-14.5106553448028
1626177988416.56,-14.4987552760548
1626177988419.89,-14.4802921390882
1626177988423.22,-14.4669496377646
1626177988426.54,-14.418267538341
1626177988429.87,-14.4197099709165
1626177988433.2,-14.4174020787957
1626177988436.52,-14.4202869439467
1626177988439.85,-14.4296627556876
1626177988443.18,-14.4355767292472
1626177988446.5,-14.453318649926
1626177988449.83,-14.4882976398823
1626177988453.16,-14.5095013987424
1626177988456.48,-14.5578228900221
1626177988459.81,-14.5634483770667
1626177988463.13,-14.5551543897574
1626177988466.46,-14.5790266488822
1626177988469.79,-14.5807575679728
1626177988473.11,-14.5740502564967
1626177988476.44,-14.5928740016072
1626177988479.77,-14.5609962416883
1626177988483.09,-14.5654677826724
1626177988486.42,-14.5765023918751
1626177988489.75,-14.5668380936191
1626177988493.07,-14.5819115140333
1626177988496.4,-14.6071540841048
1626177988499.73,-14.6136450306946
1626177988503.05,-14.6047019487264
1626177988506.38,-14.6071540841048
1626177988509.7,-14.6072262057336
1626177988513.03,-14.6216505314887
1626177988516.36,-14.6047019487264
1626177988519.68,-14.6072983273623
1626177988523.01,-14.59388370441
1626177988526.34,-14.6224438694053
1626177988529.66,-14.6233093289506
1626177988532.99,-14.6162414093305
1626177988536.32,-14.6034037594084
1626177988539.64,-14.6149432200126
1626177988542.97,-14.6265548022455
1626177988546.3,-14.6274202617908
1626177988549.62,-14.662399251747
1626177988552.95,-14.7658216674115
1626177988556.27,-14.841260891111
1626177988559.6,-14.8893660175045
1626177988562.93,-14.8905199635649
1626177988566.25,-14.7983485219894
1626177988569.58,-14.7058885938988
1626177988572.91,-14.4263451607639
1626177988576.23,-13.8596855234725
1626177988579.56,-13.5063616640999
1626177988582.89,-12.7997860669835
1626177988586.21,-12.6091686021291
1626177988589.54,-12.5930854789121
1626177988592.86,-12.8469536122028
1626177988596.19,-13.2818470337209
1626177988599.52,-13.5231660036047
1626177988602.84,-13.9823644140201
1626177988606.17,-14.3517713966097
1626177988609.5,-14.4256960661049
1626177988612.82,-14.4774072739371
1626177988616.15,-14.453967744585
1626177988619.48,-14.4510107578052
1626177988622.8,-14.4617568804928
1626177988626.13,-14.4837539772694
1626177988629.46,-14.4902449238592
1626177988632.78,-14.5065444119626
1626177988636.11,-14.5292627250269
1626177988639.43,-14.5349603337002
1626177988642.76,-14.5475094971072
1626177988646.09,-14.5472931322209
1626177988649.41,-14.54145128029
1626177988652.74,-14.5470046457058
1626177988656.07,-14.5513319434323
1626177988659.39,-14.5540725653258
1626177988662.72,-14.547581618736
1626177988666.05,-14.5488798080539
1626177988669.37,-14.549817389228
1626177988672.7,-14.5458506996454
1626177988676.03,-14.5511877001748
1626177988679.35,-14.5483028350237
1626177988682.68,-14.5534955922956
1626177988686,-14.5538562004395
1626177988689.33,-14.5428937128656
1626177988692.66,-14.5317148604053
1626177988695.98,-14.5106553448028
1626177988699.31,-14.5192378186271
1626177988702.64,-14.514766277643
1626177988705.96,-14.5290463601406
1626177988709.29,-14.5229881433234
1626177988712.62,-14.5181559941955
1626177988715.94,-14.5183723590818
1626177988719.27,-14.511881412492
1626177988722.6,-14.4888024912837
1626177988725.92,-14.5032268170389
1626177988729.25,-14.4889467345413
1626177988732.57,-14.4897400724578
1626177988735.9,-14.4900285589729
1626177988739.23,-14.4818066932925
1626177988742.55,-14.4642090158712
1626177988745.88,-14.4503616631462
1626177988749.21,-14.4378124997392
1626177988752.53,-14.4525253120095
1626177988755.86,-14.4455295140182
1626177988759.19,-14.4381731078831
1626177988762.51,-14.4188445113712
1626177988765.84,-14.3962704415644
1626177988769.17,-14.3708115066065
1626177988772.49,-14.3772303315676
1626177988775.82,-14.3703787768339
1626177988779.14,-14.3546562617607
1626177988782.47,-14.3507616938069
1626177988785.8,-14.3144845145326
1626177988789.12,-14.2955886477934
1626177988792.45,-14.2816691734396
1626177988795.78,-14.2608981443522
1626177988799.1,-14.2531811300732
1626177988802.43,-14.2232506541313
1626177988805.76,-14.2290203844333
1626177988809.08,-14.1910844076973
1626177988812.41,-14.1810595012974
1626177988815.73,-14.1742079465637
1626177988819.06,-14.1421138217585
1626177988822.39,-14.1299973881242
1626177988825.71,-14.1199724817243
1626177988829.04,-14.1074954399461
1626177988832.37,-14.1206215763833
1626177988835.69,-14.1115342511576
1626177988839.02,-14.0711461390431
1626177988842.35,-14.0612654759008
1626177988845.67,-14.0564333267728
1626177988849,-14.0801613426401
1626177988852.33,-14.096605074001
1626177988855.65,-14.1105966699835
1626177988858.98,-14.1262470634278
1626177988862.3,-14.1618751480431
1626177988865.63,-14.16382243202
1626177988868.96,-14.1992341517489
1626177988872.28,-14.2520271840128
1626177988875.61,-14.2697691046916
1626177988878.94,-14.2987619994595
1626177988882.26,-14.3380682871423
1626177988885.59,-14.330134907977
1626177988888.92,-14.3591278027448
1626177988892.24,-14.3792497371733
1626177988895.57,-14.3977849957687
1626177988898.9,-14.4243978767869
1626177988902.22,-14.4492798387146
1626177988905.55,-14.4570689746224
1626177988908.87,-14.4732963410969
1626177988912.2,-14.4740175573847
1626177988915.53,-14.4901728022305
1626177988918.85,-14.4903891671168
1626177988922.18,-14.4889467345413
1626177988925.51,-14.4967358704491
1626177988928.83,-14.4911103834045
1626177988932.16,-14.5171462913926
1626177988935.49,-14.5165693183624
1626177988938.81,-14.5032989386676
1626177988942.14,-14.501568019577
1626177988945.47,-14.4968079920778
1626177988948.79,-14.5230602649522
1626177988952.12,-14.5263057382471
1626177988955.44,-14.5407300640023
1626177988958.77,-14.5364748879045
1626177988962.1,-14.5186608455969
1626177988965.42,-14.5241420893839
1626177988968.75,-14.5408743072598
1626177988972.08,-14.5423888614641
1626177988975.4,-14.5351766985865
1626177988978.73,-14.5327966848369
1626177988982.06,-14.539864604457
1626177988985.38,-14.5236372379824
1626177988988.71,-14.539215509798
1626177988992.03,-14.5361142797606
1626177988995.36,-14.5400088477145
1626177988998.69,-14.5384221718815
1626177989002.01,-14.5224111702932
1626177989005.34,-14.5226996568083
1626177989008.67,-14.5271711977924
1626177989011.99,-14.5264499815047
1626177989015.32,-14.5318591036629
1626177989018.65,-14.544047658926
1626177989021.97,-14.5271711977924
1626177989025.3,-14.5239978461263
1626177989028.63,-14.5217620756343
1626177989031.95,-14.5208244944602
1626177989035.28,-14.5205360079451
1626177989038.6,-14.5243584542702
1626177989041.93,-14.5461391861605
1626177989045.26,-14.5222669270357
1626177989048.58,-14.5268827112773
1626177989051.91,-14.525368157073
1626177989055.24,-14.5412349154037
1626177989058.56,-14.5357536716168
1626177989061.89,-14.5397924828282
1626177989065.22,-14.5276039275651
1626177989068.54,-14.5184444807106
1626177989071.87,-14.5171462913926
1626177989075.2,-14.5286857519967
1626177989078.52,-14.5430379561231
1626177989081.85,-14.5430379561231
1626177989085.17,-14.5384942935102
1626177989088.5,-14.5139008180977
1626177989091.83,-14.5299118196859
1626177989095.15,-14.5260893733608
1626177989098.48,-14.5449852401001
1626177989101.81,-14.5396482395706
1626177989105.13,-14.5484470782813
1626177989108.46,-14.5430379561231
1626177989111.79,-14.5382058069951
1626177989115.11,-14.5330851713521
1626177989118.44,-14.5288299952543
1626177989121.77,-14.5278924140802
1626177989125.09,-14.5486634431676
1626177989128.42,-14.5470767673346
1626177989131.74,-14.5394318746843
1626177989135.07,-14.5460670645317
1626177989138.4,-14.5520531597201
1626177989141.72,-14.5459949429029
1626177989145.05,-14.5423167398354
1626177989148.38,-14.5364027662757
1626177989151.7,-14.547581618736
1626177989155.03,-14.542749469608
1626177989158.36,-14.5368354960484
1626177989161.68,-14.556596822333
1626177989165.01,-14.5450573617288
1626177989168.33,-14.5521974029776
1626177989171.66,-14.5419561316915
1626177989174.99,-14.5560919709315
1626177989178.31,-14.5431100777519
1626177989181.64,-14.5461391861605
1626177989184.97,-14.5501058757431
1626177989188.29,-14.5444803886986
1626177989191.62,-14.5501058757431
1626177989194.95,-14.5510434569172
1626177989198.27,-14.5617895796048
1626177989201.6,-14.5752763241859
1626177989204.93,-14.5526301327503
1626177989208.25,-14.5459228212741
1626177989211.58,-14.54145128029
1626177989214.9,-14.5487355647964
1626177989218.23,-14.5589768360826
1626177989221.56,-14.5569574304768
1626177989224.88,-14.5582556197948
1626177989228.21,-14.5591210793401
1626177989231.54,-14.5359700365031
1626177989234.86,-14.5617895796048
1626177989238.19,-14.5488076864252
1626177989241.52,-14.5389270232829
1626177989244.84,-14.5421724965778
1626177989248.17,-14.5368354960484
1626177989251.5,-14.5387827800253
1626177989254.82,-14.5360421581319
1626177989258.15,-14.5327245632082
1626177989261.47,-14.5345997255563
1626177989264.8,-14.5320033469204
1626177989268.13,-14.544696753585
1626177989271.45,-14.5490240513115
1626177989274.78,-14.5422446182066
1626177989278.11,-14.542749469608
1626177989281.43,-14.5464276726756
1626177989284.76,-14.5410185505174
1626177989288.09,-14.5408743072598
1626177989291.41,-14.5351766985865
1626177989294.74,-14.5369076176772
1626177989298.07,-14.5310657657463
1626177989301.39,-14.5387106583966
1626177989304.72,-14.5252239138155
1626177989308.04,-14.4908218968894
1626177989311.37,-14.5074098715079
1626177989314.7,-14.5317148604053
1626177989318.02,-14.5175790211653
1626177989321.35,-14.5086359391971
1626177989324.68,-14.514117182984
1626177989328,-14.5107274664316
1626177989331.33,-14.5185166023393
1626177989334.66,-14.5497452675993
1626177989337.98,-14.5739060132391
1626177989341.31,-14.5467882808195
1626177989344.64,-14.4805085039745
1626177989347.96,-14.5148383992718
1626177989351.29,-14.4830327609817
1626177989354.61,-14.5095735203711
1626177989357.94,-14.511881412492
1626177989361.27,-14.562366552635
1626177989364.59,-14.4693296515143
1626177989367.92,-14.48195093655
1626177989371.25,-14.5144056694991
1626177989374.57,-14.5044528847281
1626177989377.9,-14.4937788836692
1626177989381.23,-14.5012795330619
1626177989384.55,-14.5159923453322
1626177989387.88,-14.5209687377177
1626177989391.2,-14.5136844532114
1626177989394.53,-14.5305609143449
1626177989397.86,-14.519598426771
1626177989401.18,-14.558183498166
1626177989404.51,-14.5198869132861
1626177989407.84,-14.4978176948807
1626177989411.16,-14.4962310190476
1626177989414.49,-14.5143335478703
1626177989417.82,-14.5544331734697
1626177989421.14,-14.5511877001748
1626177989424.47,-14.4950770729872
1626177989427.8,-14.4934903971541
1626177989431.12,-14.466516907992
1626177989434.45,-14.5463555510468
1626177989437.77,-14.5670544585054
1626177989441.1,-14.564313836612
1626177989444.43,-14.5021449926072
1626177989447.75,-14.4749551385588
1626177989451.08,-14.4628387049244
1626177989454.41,-14.461035664205
1626177989457.73,-14.4711326922336
1626177989461.06,-14.4639205293561
1626177989464.39,-14.4722866382941
1626177989467.71,-14.4435101084125
1626177989471.04,-14.3747060745604
1626177989474.37,-14.4445919328442
1626177989477.69,-14.4122093215238
1626177989481.02,-14.3452804500199
1626177989484.34,-14.3356161517639
1626177989487.67,-14.330784002636
1626177989491,-14.3524926128975
1626177989494.32,-14.397352265996
1626177989497.65,-14.3820624806955
1626177989500.98,-14.3289809619166
1626177989504.3,-14.3480210719134
1626177989507.63,-14.3726145473259
1626177989510.96,-14.3876879677401
1626177989514.28,-14.4100456726606
1626177989517.61,-14.4484143791693
1626177989520.94,-14.4983225462821
1626177989524.26,-14.4055020100477
1626177989527.59,-14.4115602268648
1626177989530.91,-14.4039874558434
1626177989534.24,-14.5674150666493
1626177989537.57,-14.6147268551262
1626177989540.89,-14.4543283527289
1626177989544.22,-14.4914709915484
1626177989547.55,-14.3778794262265
1626177989550.87,-14.4174742004245
1626177989554.2,-14.4440870814427
1626177989557.53,-14.5023613574936
1626177989560.85,-14.4820951798076
1626177989564.18,-14.4637762860985
1626177989567.5,-14.4600980830309
1626177989570.83,-14.4300233638314
1626177989574.16,-14.4222342279237
1626177989577.48,-14.4657235700755
1626177989580.81,-14.5025056007511
1626177989584.14,-14.4706278408322
1626177989587.46,-14.4668053945071
1626177989590.79,-14.4756763548465
1626177989594.12,-14.4355767292472
1626177989597.44,-14.4518762173505
1626177989600.77,-14.4701229894308
1626177989604.1,-14.4727193680667
1626177989607.42,-14.5038037900691
1626177989610.75,-14.6567016430738
1626177989614.07,-14.6747320502677
1626177989617.4,-14.762143464344
1626177989620.73,-14.760196180367
1626177989624.05,-14.7080522427621
1626177989627.38,-14.5638089852105
1626177989630.71,-14.252604157043
1626177989634.03,-14.0197955393547
1626177989637.36,-13.3466122563615
1626177989640.69,-12.6678756079525
1626177989644.01,-12.505601943207
1626177989647.34,-12.4244651108343
1626177989650.67,-12.7030709627951
1626177989653.99,-12.9207340384405
1626177989657.32,-13.310118712201
1626177989660.64,-13.8314138449924
1626177989663.97,-14.0336428920797
1626177989667.3,-14.3035941485875
1626177989670.62,-14.3549447482758
1626177989673.95,-14.3154220957067
1626177989677.28,-14.2957328910509
1626177989680.6,-14.3207590962361
1626177989683.93,-14.328187624
1626177989687.26,-14.3808364130064
1626177989690.58,-14.3710999931216
1626177989693.91,-14.3762206287647
1626177989697.24,-14.3887697921717
1626177989700.56,-14.4095408212591
1626177989703.89,-14.4098293077742
1626177989707.21,-14.3999486446319
1626177989710.54,-14.4373076483378
1626177989713.87,-14.455265933903
1626177989717.19,-14.4068001993656
1626177989720.52,-14.4171857139094
1626177989723.85,-14.4269221337941
1626177989727.17,-14.4106947673195
1626177989730.5,-14.3999486446319
1626177989733.83,-14.4040595774722
1626177989737.15,-14.4011747123211
1626177989740.48,-14.3987225769428
1626177989743.8,-14.4170414706518
1626177989747.13,-14.3942510359587
1626177989750.46,-14.3899237382321
1626177989753.78,-14.3934576980421
1626177989757.11,-14.37001816869
1626177989760.44,-14.3987946985715
1626177989763.76,-14.3659072358498
1626177989767.09,-14.3537186805867
1626177989770.42,-14.3454968149062
1626177989773.74,-14.3257354886217
1626177989777.07,-14.358118099942
1626177989780.4,-14.3924479952393
1626177989783.72,-14.3454246932774
1626177989787.05,-14.3470834907393
1626177989790.37,-14.3238603262735
1626177989793.7,-14.3141239063887
1626177989797.03,-14.302151716012
1626177989800.35,-14.2870782955978
1626177989803.68,-14.2981850264293
1626177989807.01,-14.2873667821129
1626177989810.33,-14.2657302934802
1626177989813.66,-14.2696969830629
1626177989816.99,-14.2730866996153
1626177989820.31,-14.2498635351495
1626177989823.64,-14.2377471015152
1626177989826.97,-14.2238997487902
1626177989830.29,-14.2207263971241
1626177989833.62,-14.2295973574635
1626177989836.94,-14.2116390718984
1626177989840.27,-14.2124324098149
1626177989843.6,-14.1893534886066
1626177989846.92,-14.1599999856949
1626177989850.25,-14.1400944161528
1626177989853.58,-14.1135536567633
1626177989856.9,-14.1146354811949
1626177989860.23,-14.1056923992267
1626177989863.56,-14.0560005970002
1626177989866.88,-14.0562169618865
1626177989870.21,-14.0288107429517
1626177989873.54,-14.0311186350725
1626177989876.86,-14.0006111861004
1626177989880.19,-13.9859704954589
1626177989883.51,-13.9701037371282
1626177989886.84,-13.9642618851974
1626177989890.17,-13.9491884647832
1626177989893.49,-13.9532272759947
1626177989896.82,-13.9902256715567
1626177989900.15,-14.0104197276139
1626177989903.47,-13.9065645821768
1626177989906.8,-13.9442120723977
1626177989910.13,-13.9478181538365
1626177989913.45,-13.9939038746242
1626177989916.78,-13.9613048984176
1626177989920.1,-13.9460872347459
1626177989923.43,-14.0592460702951
1626177989926.76,-14.1176645896035
1626177989930.08,-14.1098754536957
1626177989933.41,-14.0854983431695
1626177989936.74,-14.163173337361
1626177989940.06,-14.1514896334993
1626177989943.39,-14.2595999550343
1626177989946.72,-14.2173366805716
1626177989950.04,-14.2476998862862
1626177989953.37,-14.1817085959564
1626177989956.7,-14.2105572474667
1626177989960.02,-14.2086099634898
1626177989963.35,-14.2356555742807
1626177989966.67,-14.2360161824246
1626177989970,-14.2557053870804
1626177989973.33,-14.264504225791
1626177989976.65,-14.2877273902568
1626177989979.98,-14.2942904584754
1626177989983.31,-14.3116717710104
1626177989986.63,-14.3103014600636
1626177989989.96,-14.312753595442
1626177989993.29,-14.3292694484317
1626177989996.61,-14.3320821919539
1626177989999.94,-14.3278991374849
1626177990003.27,-14.3291973268029
1626177990006.59,-14.3443428688458
1626177990009.92,-14.3148451226765
1626177990013.24,-14.3227063802131
1626177990016.57,-14.3252306372202
1626177990019.9,-14.3224900153267
1626177990023.22,-14.3231391099857
1626177990026.55,-14.3245094209325
1626177990029.88,-14.3211918260088
1626177990033.2,-14.3253748804778
1626177990036.53,-14.3273221644547
1626177990039.86,-14.3296300565755
1626177990043.18,-14.3299185430906
1626177990046.51,-14.32111970438
1626177990049.84,-14.316287555252
1626177990053.16,-14.31405178476
1626177990056.49,-14.3183069608577
1626177990059.81,-14.32465366419
1626177990063.14,-14.3219851639253
1626177990066.47,-14.3083541760867
1626177990069.79,-14.3174415013124
1626177990073.12,-14.3131142035859
1626177990076.45,-14.3283318672576
1626177990079.77,-14.3439822607019
1626177990083.1,-14.3126093521845
1626177990086.43,-14.3103014600636
1626177990089.75,-14.316287555252
1626177990093.08,-14.3209033394937
1626177990096.41,-14.3128257170708
1626177990099.73,-14.3076329597989
1626177990103.06,-14.2873667821129
1626177990106.38,-14.2916940798395
1626177990109.71,-14.3352555436201
1626177990113.04,-14.309868730291
1626177990116.36,-14.2890255795748
1626177990119.69,-14.309219635632
1626177990123.02,-14.2971032019977
1626177990126.34,-14.2907564986654
1626177990129.67,-14.2999159455199
1626177990133,-14.2958771343085
1626177990136.32,-14.3028729322997
1626177990139.65,-14.3059741623371
1626177990142.97,-14.2891698228323
1626177990146.3,-14.2844819169619
1626177990149.63,-14.2998438238911
1626177990152.95,-14.3142681496463
1626177990156.28,-14.2955165261646
1626177990159.61,-14.2936413638164
1626177990162.93,-14.2848425251058
1626177990166.26,-14.3051808244206
1626177990169.59,-14.2969589587401
1626177990172.91,-14.3028729322997
1626177990176.24,-14.2971753236264
1626177990179.57,-14.3004207969213
1626177990182.89,-14.3154942173355
1626177990186.22,-14.3036662702163
1626177990189.54,-14.3036662702163
1626177990192.87,-14.2901074040064
1626177990196.2,-14.296021377566
1626177990199.52,-14.2989062427171
1626177990202.85,-14.305036581163
1626177990206.18,-14.3029450539285
1626177990209.5,-14.2906122554078
1626177990212.83,-14.2921989312409
1626177990216.16,-14.2946510666193
1626177990219.48,-14.2945068233617
1626177990222.81,-14.305685675822
1626177990226.14,-14.3061184055946
1626177990229.46,-14.2947231882481
1626177990232.79,-14.2976801750279
1626177990236.11,-14.3100850951773
1626177990239.44,-14.3167924066535
1626177990242.77,-14.2764764161678
1626177990246.09,-14.2868619307115
1626177990249.42,-14.2704181993506
1626177990252.75,-14.2970310803689
1626177990256.07,-14.288304363287
1626177990259.4,-14.2927759042711
1626177990262.73,-14.2958050126797
1626177990266.05,-14.297968661543
1626177990269.38,-14.2862849576813
1626177990272.71,-14.2978244182854
1626177990276.03,-14.3001323104062
1626177990279.36,-14.3012141348379
1626177990282.68,-14.2974638101415
1626177990286.01,-14.3028729322997
1626177990289.34,-14.3028729322997
1626177990292.66,-14.280587349008
1626177990295.99,-14.2863570793101
1626177990299.32,-14.3353276652488
1626177990302.64,-14.2760436863951
1626177990305.97,-14.2816691734396
1626177990309.3,-14.2857079846511
1626177990312.62,-14.2981850264293
1626177990315.95,-14.32111970438
1626177990319.27,-14.2826067546137
1626177990322.6,-14.2682545504873
1626177990325.93,-14.2691921316614
1626177990329.25,-14.2858522279086
1626177990332.58,-14.2704903209794
1626177990335.91,-14.2846261602195
1626177990339.23,-14.3028729322997
1626177990342.56,-14.2540465896185
1626177990345.89,-14.2652254420788
1626177990349.21,-14.2788564299174
1626177990352.54,-14.2704903209794
1626177990355.87,-14.276404294539
1626177990359.19,-14.2810922004094
1626177990362.52,-14.3038105134738
1626177990365.84,-14.2670284827982
1626177990369.17,-14.2901795256352
1626177990372.5,-14.3076329597989
1626177990375.82,-14.26868728026
1626177990379.15,-14.294434701733
1626177990382.48,-14.2839770655605
1626177990385.8,-14.2823182680986
1626177990389.13,-14.2823903897274
1626177990392.46,-14.2795055245764
1626177990395.78,-14.2577969143149
1626177990399.11,-14.2738800375319
1626177990402.44,-14.2608260227234
1626177990405.76,-14.2489259539754
1626177990409.09,-14.2781352136296
1626177990412.41,-14.2600326848069
1626177990415.74,-14.2518108191265
1626177990419.07,-14.2624848201853
1626177990422.39,-14.2350786012505
1626177990425.72,-14.2696248614341
1626177990429.05,-14.2158221263673
1626177990432.37,-14.1975753542871
1626177990435.7,-14.1853146773952
1626177990439.03,-14.1629569724747
1626177990442.35,-14.1326658883889
1626177990445.68,-14.1163664002855
1626177990449.01,-14.1094427239231
1626177990452.33,-14.1127603188467
1626177990455.66,-14.1109572781273
1626177990458.98,-14.1346852939946
1626177990462.31,-14.1491096197497
1626177990465.64,-14.1511290253555
1626177990468.96,-14.1560332961122
1626177990472.29,-14.1584854314906
1626177990475.62,-14.2205100322378
1626177990478.94,-14.2196445726925
1626177990482.27,-14.2393337773483
1626177990485.6,-14.2639993743896
1626177990488.92,-14.2536859814746
1626177990492.25,-14.2620520904126
1626177990495.57,-14.2678218207147
1626177990498.9,-14.2869340523403
1626177990502.23,-14.2772697540843
1626177990505.55,-14.3094360005183
1626177990508.88,-14.2897467958625
1626177990512.21,-14.2891698228323
1626177990515.53,-14.3322985568402
1626177990518.86,-14.3330918947568
1626177990522.19,-14.352636856155
1626177990525.51,-14.3171530147973
1626177990528.84,-14.312753595442
1626177990532.17,-14.3075608381702
1626177990535.49,-14.3056135541932
1626177990538.82,-14.3051808244206
1626177990542.14,-14.2801546192354
1626177990545.47,-14.3242209344174
1626177990548.8,-14.2998438238911
1626177990552.12,-14.2826067546137
1626177990555.45,-14.26161936064
1626177990558.78,-14.3189560555167
1626177990562.1,-14.325951853508
1626177990565.43,-14.3362652464229
1626177990568.76,-14.4711326922336
1626177990572.08,-14.5271711977924
1626177990575.41,-14.6044134622113
1626177990578.74,-14.5918642988043
1626177990582.06,-14.5609241200595
1626177990585.39,-14.4225948360675
1626177990588.71,-14.1770928117147
1626177990592.04,-13.9689497910678
1626177990595.37,-13.371854826433
1626177990598.69,-12.7766350241464
1626177990602.02,-12.6103946698182
1626177990605.35,-12.5446197443747
1626177990608.67,-12.7132401124525
1626177990612,-12.8602961135264
1626177990615.33,-13.2259527714196
1626177990618.65,-13.6736838428597
1626177990621.98,-13.9096658122141
1626177990625.31,-14.1659139592545
1626177990628.63,-14.1999553680367
1626177990631.96,-14.1918777456138
1626177990635.28,-14.1540138905065
1626177990638.61,-14.1505520523253
1626177990641.94,-14.1600721073237
1626177990645.26,-14.1801219201233
1626177990648.59,-14.1927432051591
1626177990651.92,-14.1946183675073
1626177990655.24,-14.1900025832656
1626177990658.57,-14.1794007038356
1626177990661.9,-14.1906516779246
1626177990665.22,-14.1957723135677
1626177990668.55,-14.1856752855391
1626177990671.88,-14.2151009100796
1626177990675.2,-14.2039220576193
1626177990678.53,-14.1961329217116
1626177990681.85,-14.1899304616368
1626177990685.18,-14.177020690086
1626177990688.51,-14.168654581148
1626177990691.83,-14.1685824595192
1626177990695.16,-14.1699527704659
1626177990698.49,-14.1835116366758
1626177990701.81,-14.1730540005033
1626177990705.14,-14.1496865927799
1626177990708.47,-14.1672842702012
1626177990711.79,-14.1669236620574
1626177990715.12,-14.147090214144
1626177990718.44,-14.1426907947887
1626177990721.77,-14.149037498121
1626177990725.1,-14.1411762405844
1626177990728.42,-14.1589181612632
1626177990731.75,-14.1365604563428
1626177990735.08,-14.1338198344493
1626177990738.4,-14.1622357561869
1626177990741.73,-14.1291319285788
1626177990745.06,-14.1278337392609
1626177990748.38,-14.0952347630542
1626177990751.71,-14.0787910316933
1626177990755.04,-14.0761225314286
1626177990758.36,-14.0699200713539
1626177990761.69,-14.0752570718833
1626177990765.01,-14.0528272453341
1626177990768.34,-14.0553515023412
1626177990771.67,-14.0293877159819
1626177990774.99,-14.0334986488221
1626177990778.32,-14.0365998788595
1626177990781.65,-14.005226970342
1626177990784.97,-13.9783256028087
1626177990788.3,-13.9732770887944
1626177990791.63,-14.0048663621982
1626177990794.95,-13.9704643452721
1626177990798.28,-13.954741830199
1626177990801.61,-13.9305810845591
1626177990804.93,-13.9013718249049
1626177990808.26,-13.9245228677419
1626177990811.58,-13.884278998885
1626177990814.91,-13.8792304848707
1626177990818.24,-13.8718019571068
1626177990821.56,-13.821893789994
1626177990824.89,-13.8107149375337
1626177990828.22,-13.7977330443541
1626177990831.54,-13.7930451384837
1626177990834.87,-13.7383769438716
1626177990838.2,-13.7339775245163
1626177990841.52,-13.7429206064845
1626177990844.85,-13.7168846984964
1626177990848.18,-13.7197695636475
1626177990851.5,-13.7335447947436
1626177990854.83,-13.7194089555036
1626177990858.15,-13.7133507386864
1626177990861.48,-13.6918584933112
1626177990864.81,-13.7323908486832
1626177990868.13,-13.7354199570918
1626177990871.46,-13.7598691892468
1626177990874.79,-13.8130228296546
1626177990878.11,-13.8234083441983
1626177990881.44,-13.8637243346839
1626177990884.77,-13.8852887016879
1626177990888.09,-13.9136325017968
1626177990891.42,-13.9469526942912
1626177990894.74,-13.9615933849327
1626177990898.07,-13.9893602120114
1626177990901.4,-14.0284501348078
1626177990904.72,-14.0396289872681
1626177990908.05,-14.0469132717744
1626177990911.38,-14.057659394462
1626177990914.7,-14.0716509904445
1626177990918.03,-14.0966771956297
1626177990921.36,-14.1117506160439
1626177990924.68,-14.1142027514223
1626177990928.01,-14.1409598756981
1626177990931.34,-14.1614424182704
1626177990934.66,-14.1618751480431
1626177990937.99,-14.1558169312259
1626177990941.31,-14.1638945536488
1626177990944.64,-14.1570429989151
1626177990947.97,-14.1820692041003
1626177990951.29,-14.1626684859596
1626177990954.62,-14.1621636345582
1626177990957.95,-14.184737704365
1626177990961.27,-14.1887765155764
1626177990964.6,-14.1778140280025
1626177990967.93,-14.169303675807
1626177990971.25,-14.1929595700454
1626177990974.58,-14.1864686234556
1626177990977.91,-14.1843049745923
1626177990981.23,-14.1796170687219
1626177990984.56,-14.1801219201233
1626177990987.88,-14.1913007725836
1626177990991.21,-14.1907237995534
1626177990994.54,-14.1964214082267
1626177990997.86,-14.1915171374699
1626177991001.19,-14.1892092453491
1626177991004.52,-14.2058693415963
1626177991007.84,-14.1885601506901
1626177991011.17,-14.1864686234556
1626177991014.5,-14.2129372612163
1626177991017.82,-14.2104130042092
1626177991021.15,-14.2024796250438
1626177991024.48,-14.2066626795128
1626177991027.8,-14.2068069227704
1626177991031.13,-14.2180578968594
1626177991034.45,-14.203705692733
1626177991037.78,-14.2112784637545
1626177991041.11,-14.2489980756042
1626177991044.43,-14.2417859127266
1626177991047.76,-14.203705692733
1626177991051.09,-14.2073838958006
1626177991054.41,-14.2245488434492
1626177991057.74,-14.2234670190176
1626177991061.07,-14.225919154396
1626177991064.39,-14.2338525335613
1626177991067.72,-14.2300300872362
1626177991071.04,-14.228804019547
1626177991074.37,-14.2166154642839
1626177991077.7,-14.2474835213999
1626177991081.02,-14.2409925748101
1626177991084.35,-14.2469786699985
1626177991087.68,-14.2517386974977
1626177991091,-14.2769091459404
1626177991094.33,-14.292487417756
1626177991097.66,-14.2994110941185
1626177991100.98,-14.2857079846511
1626177991104.31,-14.2763321729102
1626177991107.64,-14.2720048751837
1626177991110.96,-14.297319566884
1626177991114.29,-14.2905401337791
1626177991117.61,-14.2807315922656
1626177991120.94,-14.3133305684722
1626177991124.27,-14.2821740248411
1626177991127.59,-14.3206148529786
1626177991130.92,-14.311455406124
1626177991134.25,-14.3028729322997
1626177991137.57,-14.3103014600636
1626177991140.9,-14.3276106509698
1626177991144.23,-14.312104500783
1626177991147.55,-14.3322264352115
1626177991150.88,-14.3234997181296
1626177991154.21,-14.3196772718045
1626177991157.53,-14.3117438926391
1626177991160.86,-14.3231391099857
1626177991164.18,-14.3175136229412
1626177991167.51,-14.3302791512345
1626177991170.84,-14.335904638279
1626177991174.16,-14.3354719085064
1626177991177.49,-14.3465786393379
1626177991180.82,-14.3421792199825
1626177991184.14,-14.3286924754015
1626177991187.47,-14.3414580036948
1626177991190.8,-14.3342458408172
1626177991194.12,-14.3201821232059
1626177991197.45,-14.351050180322
1626177991200.78,-14.3625896409261
1626177991204.1,-14.337202827597
1626177991207.43,-14.3535744373291
1626177991210.75,-14.3372749492258
1626177991214.08,-14.3573968836542
1626177991217.41,-14.3415301253235
1626177991220.73,-14.3464343960803
1626177991224.06,-14.3530695859277
1626177991227.39,-14.3344622057035
1626177991230.71,-14.3226342585843
1626177991234.04,-14.3326591649841
1626177991237.37,-14.3879043326264
1626177991240.69,-14.3885534272854
1626177991244.02,-14.3483816800572
1626177991247.34,-14.3444149904746
1626177991250.67,-14.349751991004
1626177991254,-14.3524926128975
1626177991257.32,-14.3579017350557
1626177991260.65,-14.3674217900541
1626177991263.98,-14.3512665452083
1626177991267.3,-14.3685757361145
1626177991270.63,-14.3699460470612
1626177991273.96,-14.3607866002067
1626177991277.28,-14.4052135235326
1626177991280.61,-14.3977128741399
1626177991283.94,-14.4048529153887
1626177991287.26,-14.4124256864102
1626177991290.59,-14.4163923759928
1626177991293.91,-14.4031941179269
1626177991297.24,-14.4111274970922
1626177991300.57,-14.3886255489141
1626177991303.89,-14.4249748498171
1626177991307.22,-14.4179069301971
1626177991310.55,-14.3948280089889
1626177991313.87,-14.4150220650461
1626177991317.2,-14.4414907028068
1626177991320.53,-14.453318649926
1626177991323.85,-14.4585835288267
1626177991327.18,-14.4702672326883
1626177991330.51,-14.4494240819721
1626177991333.83,-14.4598095965158
1626177991337.16,-14.459448988372
1626177991340.48,-14.4567083664785
1626177991343.81,-14.4673823675373
1626177991347.14,-14.4862782342766
1626177991350.46,-14.5004861951454
1626177991353.79,-14.4585114071979
1626177991357.12,-14.43658643205
1626177991360.44,-14.4545447176152
1626177991363.77,-14.4298069989451
1626177991367.1,-14.3977128741399
1626177991370.42,-14.3630944923275
1626177991373.75,-14.369369074031
1626177991377.08,-14.3159269471081
1626177991380.4,-14.3543677752456
1626177991383.73,-14.3999486446319
1626177991387.05,-14.3972080227385
1626177991390.38,-14.446250730306
1626177991393.71,-14.5069771417352
1626177991397.03,-14.4605308128036
1626177991400.36,-14.4608192993187
1626177991403.69,-14.5033710602964
1626177991407.01,-14.5164250751048
1626177991410.34,-14.5026498440087
1626177991413.67,-14.5135402099538
1626177991416.99,-14.5444803886986
1626177991420.32,-14.5542889302121
1626177991423.65,-14.578449675852
1626177991426.97,-14.5657562691875
1626177991430.3,-14.5477979836223
1626177991433.62,-14.5677035531644
1626177991436.95,-14.5715259994895
1626177991440.28,-14.5894121634259
1626177991443.6,-14.5977061507352
1626177991446.93,-14.6038364891811
1626177991450.26,-14.6151595848989
1626177991453.58,-14.6277808699347
1626177991456.91,-14.6166020174744
1626177991460.24,-14.6445852094394
1626177991463.56,-14.6186935447089
1626177991466.89,-14.6313869513735
1626177991470.21,-14.6466046150451
1626177991473.54,-14.6445130878106
1626177991476.87,-14.6525907102335
1626177991480.19,-14.6335506002367
1626177991483.52,-14.6451621824696
1626177991486.85,-14.6514367641731
1626177991490.17,-14.6737944690936
1626177991493.5,-14.7747647493797
1626177991496.83,-14.8156577128956
1626177991500.15,-14.9025642755704
1626177991503.48,-14.9275183591269
1626177991506.81,-14.9183589122723
1626177991510.13,-14.7813278175983
1626177991513.46,-14.5612126065746
1626177991516.78,-14.3602817488053
1626177991520.11,-13.8546370094582
1626177991523.44,-13.2586959908838
1626177991526.76,-13.1031296376144
1626177991530.09,-13.0034575466463
1626177991533.42,-13.0791852568609
1626177991536.74,-13.2712451542908
1626177991540.07,-13.59766764613
1626177991543.4,-13.9521454515631
1626177991546.72,-14.1745685547076
1626177991550.05,-14.5050298577583
1626177991553.38,-14.5687132559673
1626177991556.7,-14.6039807324387
1626177991560.03,-14.6407627631143
1626177991563.35,-14.5883303389943
1626177991566.68,-14.5875370010778
1626177991570.01,-14.6343439381533
1626177991573.33,-14.6887236462502
1626177991576.66,-14.6880745515912
1626177991579.99,-14.6915363897725
1626177991583.31,-14.6677362522765
1626177991586.64,-14.6687459550793
1626177991589.97,-14.7076916346182
1626177991593.29,-14.7007679582558
1626177991596.62,-14.7041576748082
1626177991599.95,-14.7129565135189
1626177991603.27,-14.7513252200276
1626177991606.6,-14.7197359466238
1626177991609.92,-14.705527985755
1626177991613.25,-14.730914799084
1626177991616.58,-14.7515415849139
1626177991619.9,-14.717428054503
1626177991623.23,-14.7118025674585
1626177991626.56,-14.7022825124601
1626177991629.88,-14.7176444193893
1626177991633.21,-14.7327899614322
1626177991636.54,-14.7059607155276
1626177991639.86,-14.7242796092367
1626177991643.19,-14.709061945565
1626177991646.51,-14.7092783104513
1626177991649.84,-14.7193032168511
1626177991653.17,-14.7087734590499
1626177991656.49,-14.7190868519648
1626177991659.82,-14.7343766372653
1626177991663.15,-14.6521579804609
1626177991666.47,-14.655331332127
1626177991669.8,-14.6858387810992
1626177991673.13,-14.6893727409092
1626177991676.45,-14.6991091607939
1626177991679.78,-14.6242469101247
1626177991683.11,-14.6427100470913
1626177991686.43,-14.6681689820491
1626177991689.76,-14.6913921465149
1626177991693.08,-14.6710538472001
1626177991696.41,-14.6478306827343
1626177991699.74,-14.6339112083806
1626177991703.06,-14.6217226531175
1626177991706.39,-14.607081962476
1626177991709.72,-14.6116977467177
1626177991713.04,-14.6150153416413
1626177991716.37,-14.6128516927781
1626177991719.7,-14.6018170835754
1626177991723.02,-14.5431100777519
1626177991726.35,-14.5353209418441
1626177991729.68,-14.5477979836223
1626177991733,-14.5470046457058
1626177991736.33,-14.4875043019657
1626177991739.65,-14.4675987324236
1626177991742.98,-14.4745224087861
1626177991746.31,-14.4386779592845
1626177991749.63,-14.424686363302
1626177991752.96,-14.4269942554229
1626177991756.29,-14.4026171448966
1626177991759.61,-14.3879043326264
1626177991762.94,-14.4037710909571
1626177991766.27,-14.3708836282353
1626177991769.59,-14.3427561930127
1626177991772.92,-14.349751991004
1626177991776.25,-14.309219635632
1626177991779.57,-14.3315773405525
1626177991782.9,-14.3324428000978
1626177991786.22,-14.336553732938
1626177991789.55,-14.3427561930127
1626177991792.88,-14.3423955848689
1626177991796.2,-14.4181954167122
1626177991799.53,-14.4313215531494
1626177991802.86,-14.4359373373911
1626177991806.18,-14.4950770729872
1626177991809.51,-14.5358979148743
1626177991812.84,-14.564313836612
1626177991816.16,-14.603548002666
1626177991819.49,-14.6346324246684
1626177991822.81,-14.6526628318623
1626177991826.14,-14.6890842543941
1626177991829.47,-14.7186541221922
1626177991832.79,-14.7206735277979
1626177991836.12,-14.7515415849139
1626177991839.45,-14.7640907483209
1626177991842.77,-14.7789478038487
1626177991846.1,-14.7856551153249
1626177991849.43,-14.802675819716
1626177991852.75,-14.8080849418741
1626177991856.08,-14.8328226605442
1626177991859.41,-14.8367893501269
1626177991862.73,-14.8292165791054
1626177991866.06,-14.8090225230482
1626177991869.38,-14.8124843612295
1626177991872.71,-14.8312359847112
1626177991876.04,-14.841260891111
1626177991879.36,-14.8416214992549
1626177991882.69,-14.8418378641412
1626177991886.02,-14.8579209873582
1626177991889.34,-14.8625367715999
1626177991892.67,-14.884678111634
1626177991896,-14.8842453818614
1626177991899.32,-14.8846059900053
1626177991902.65,-14.8447227292922
1626177991905.98,-14.8864090307246
1626177991909.3,-14.8570555278129
1626177991912.63,-14.8613828255394
1626177991915.95,-14.8669361909552
1626177991919.28,-14.8998236536769
1626177991922.61,-14.8989581941316
1626177991925.93,-14.9107140196221
1626177991929.26,-14.9247777372334
1626177991932.59,-14.924561372347
1626177991935.91,-14.89434240989
1626177991939.24,-14.915257682235
1626177991942.57,-14.9291050349599
1626177991945.89,-14.913959492917
1626177991949.22,-14.9125891819703
1626177991952.55,-14.8967224236396
1626177991955.87,-14.9442505770028
1626177991959.2,-14.9327832380275
1626177991962.52,-14.9423032930259
1626177991965.85,-14.9203061962493
1626177991969.18,-14.9141758578033
1626177991972.5,-14.9414378334806
1626177991975.83,-14.9580979297278
1626177991979.16,-14.9663197954082
1626177991982.48,-14.9878841624122
1626177991985.81,-14.9675458630974
1626177991989.14,-14.9905526626769
1626177991992.46,-14.9718010391952
1626177991995.79,-14.9759840936642
1626177991999.11,-14.9912017573359
1626177992002.44,-15.007573367068
1626177992005.77,-14.9952405685473
1626177992009.09,-14.986658094723
1626177992012.42,-15.0036066774853
1626177992015.75,-15.0174540302103
1626177992019.07,-15.0087994347572
1626177992022.4,-15.0430572084257
1626177992025.73,-15.0490433036141
1626177992029.05,-15.0246661930878
1626177992032.38,-15.0385856674416
1626177992035.71,-15.041975383994
1626177992039.03,-15.0411099244487
1626177992042.36,-15.0435620598271
1626177992045.68,-15.0382971809265
1626177992049.01,-15.0517118038788
1626177992052.34,-15.0232237605123
1626177992055.66,-15.0276953014964
1626177992058.99,-15.0231516388835
1626177992062.32,-15.0478893575536
1626177992065.64,-15.0372874781236
1626177992068.97,-15.0276231798676
1626177992072.3,-15.0414705325926
1626177992075.62,-15.0318783559654
1626177992078.95,-15.0439947895998
1626177992082.28,-15.0601500344455
1626177992085.6,-15.0344747346013
1626177992088.93,-15.0297147071021
1626177992092.25,-15.0551015204312
1626177992095.58,-15.0571209260369
1626177992098.91,-15.0601500344455
1626177992102.23,-15.0845992666005
1626177992105.56,-15.0693094813001
1626177992108.89,-15.0843829017142
1626177992112.21,-15.0477451142961
1626177992115.54,-15.0543803041435
1626177992118.87,-15.0554621285751
1626177992122.19,-15.0563997097492
1626177992125.52,-15.0714010085346
1626177992128.85,-15.0743579953144
1626177992132.17,-15.0850319963732
1626177992135.5,-15.0630348995966
1626177992138.82,-15.0694537245576
1626177992142.15,-15.0783968065258
1626177992145.48,-15.0661361296339
1626177992148.8,-15.0605106425894
1626177992152.13,-15.0710404003907
1626177992155.46,-15.0832289556538
1626177992158.78,-15.0708240355043
1626177992162.11,-15.069958575959
1626177992165.44,-15.1003217816736
1626177992168.76,-15.0877726182667
1626177992172.09,-15.0756561846323
1626177992175.42,-15.0977254030377
1626177992178.74,-15.1073175796649
1626177992182.07,-15.0782525632683
1626177992185.39,-15.0828683475099
1626177992188.72,-15.0906574834177
1626177992192.05,-15.076738009064
1626177992195.37,-15.0887823210695
1626177992198.7,-15.0918835511069
1626177992202.03,-15.1195782565568
1626177992205.35,-15.1054424173167
1626177992208.68,-15.0782525632683
1626177992212.01,-15.0602942777031
1626177992215.33,-15.0536590878557
1626177992218.66,-15.0605827642182
1626177992221.98,-15.049692398273
1626177992225.31,-15.0401002216459
1626177992228.64,-15.0042557721443
1626177992231.96,-14.9441784553741
1626177992235.29,-14.9541312401451
1626177992238.62,-14.987307189382
1626177992241.94,-14.9815374590799
1626177992245.27,-14.9962502713502
1626177992248.6,-15.0103139889615
1626177992251.92,-15.0257480175195
1626177992255.25,-15.0419032623653
1626177992258.58,-15.0536590878557
1626177992261.9,-15.0952011460306
1626177992265.23,-15.1010429979614
1626177992268.55,-15.1283049736387
1626177992271.88,-15.1347959202285
1626177992275.21,-15.161336679618
1626177992278.53,-15.1621300175345
1626177992281.86,-15.1879495606362
1626177992285.19,-15.1819634654478
1626177992288.51,-15.1630675987086
1626177992291.84,-15.1715779509041
1626177992295.17,-15.1772034379486
1626177992298.49,-15.1839107494248
1626177992301.82,-15.1971811291195
1626177992305.15,-15.197036885862
1626177992308.47,-15.1953059667714
1626177992311.8,-15.1935750476807
1626177992315.12,-15.1978302237785
1626177992318.45,-15.2083599815798
1626177992321.78,-15.2129036441927
1626177992325.1,-15.2083599815798
1626177992328.43,-15.2048260217698
1626177992331.76,-15.2232891587364
1626177992335.08,-15.2101630222992
1626177992338.41,-15.1971090074908
1626177992341.74,-15.2178079149494
1626177992345.06,-15.2114612116171
1626177992348.39,-15.2740627853945
1626177992351.72,-15.3161818165996
1626177992355.04,-15.3861397965121
1626177992358.37,-15.4937452666456
1626177992361.69,-15.5342055003888
1626177992365.02,-15.5064386733101
1626177992368.35,-15.3810912824978
1626177992371.67,-15.159389395641
1626177992375,-15.0135594622564
1626177992378.33,-14.495798289275
1626177992381.65,-13.8387702511275
1626177992384.98,-13.5270605715585
1626177992388.31,-13.305286563073
1626177992391.63,-13.3174751183361
1626177992394.96,-13.4712384308861
1626177992398.28,-13.8410060216196
1626177992401.61,-14.2991226076034
1626177992404.94,-14.5508270920309
1626177992408.26,-14.9696373903319
1626177992411.59,-15.1332092443954
1626177992414.92,-15.1209485675035
1626177992418.24,-15.0941193215989
1626177992421.57,-15.1103466880735
1626177992424.9,-15.0980138895528
1626177992428.22,-15.1102745664447
1626177992431.55,-15.1386904881824
1626177992434.88,-15.1387626098111
1626177992438.2,-15.1400607991291
1626177992441.53,-15.1654476124582
1626177992444.85,-15.1666015585186
1626177992448.18,-15.1640773015114
1626177992451.51,-15.1698470318135
1626177992454.83,-15.1480662999232
1626177992458.16,-15.1472729620067
1626177992461.49,-15.1592451523835
1626177992464.81,-15.1417195965909
1626177992468.14,-15.1682603559804
1626177992471.47,-15.1549178546569
1626177992474.79,-15.1251316219725
1626177992478.12,-15.1142412560274
1626177992481.45,-15.1339304606832
1626177992484.77,-15.140421407273
1626177992488.1,-15.1268625410631
1626177992491.42,-15.1386183665536
1626177992494.75,-15.1832616547658
1626177992498.08,-15.1717943157905
1626177992501.4,-15.1923489799916
1626177992504.73,-15.1904738176434
1626177992508.06,-15.1924211016203
1626177992511.38,-15.1958108181728
1626177992514.71,-15.1662409503747
1626177992518.04,-15.1518166246196
1626177992521.36,-15.1424408128787
1626177992524.69,-15.1604712200727
1626177992528.02,-15.1479941782944
1626177992531.34,-15.1609039498453
1626177992534.67,-15.1858580334017
1626177992537.99,-15.1764822216609
1626177992541.32,-15.1808816410162
1626177992544.65,-15.1817471005615
1626177992547.97,-15.1357335014026
1626177992551.3,-15.1254922301164
1626177992554.63,-15.1211649323898
1626177992557.95,-15.1042163496275
1626177992561.28,-15.1155394453453
1626177992564.61,-15.1092648636418
1626177992567.93,-15.1202273512158
1626177992571.26,-15.10760606618
1626177992574.58,-15.0861138208048
1626177992577.91,-15.0803440905028
1626177992581.24,-15.0833010772826
1626177992584.56,-15.0638282375131
1626177992587.89,-15.0256037742619
1626177992591.22,-15.0293540989583
1626177992594.54,-15.0372153564948
1626177992597.87,-15.0049769884321
1626177992601.2,-15.0105303538478
1626177992604.52,-14.9803113913907
1626177992607.85,-14.9686998091578
1626177992611.18,-14.9464142258661
1626177992614.5,-14.9344420354893
1626177992617.83,-14.9105697763645
1626177992621.15,-14.9066030867819
1626177992624.48,-14.9112188710235
1626177992627.81,-14.8716240968256
1626177992631.13,-14.8576325008431
1626177992634.46,-14.8817211248542
1626177992637.79,-14.8823702195132
1626177992641.11,-14.8955684775792
1626177992644.44,-14.8833799223161
1626177992647.77,-14.9035739783733
1626177992651.09,-14.8946308964051
1626177992654.42,-14.9052327758351
1626177992657.75,-14.934874765262
1626177992661.07,-14.9667525251809
1626177992664.4,-15.0183916113843
1626177992667.72,-15.0380086944114
1626177992671.05,-15.0514233173637
1626177992674.38,-15.0928932539097
1626177992677.7,-15.1321274199638
1626177992681.03,-15.150374192044
1626177992684.36,-15.1658803422308
1626177992687.68,-15.2044654136259
1626177992691.01,-15.2072781571481
1626177992694.34,-15.2369922682038
1626177992697.66,-15.2476662692626
1626177992700.99,-15.2601433110408
1626177992704.32,-15.2690142713802
1626177992707.64,-15.2892083274374
1626177992710.97,-15.282284651075
1626177992714.29,-15.3008920312991
1626177992717.62,-15.2885592327785
1626177992720.95,-15.3094023834947
1626177992724.27,-15.2932471386489
1626177992727.6,-15.312503613532
1626177992730.93,-15.3132969514486
1626177992734.25,-15.3319764533015
1626177992737.58,-15.3450304681099
1626177992740.91,-15.3571469017442
1626177992744.23,-15.3416407515574
1626177992747.56,-15.3461122925415
1626177992750.89,-15.3479874548897
1626177992754.21,-15.3589499424636
1626177992757.54,-15.3672439297728
1626177992760.86,-15.3550553745097
1626177992764.19,-15.3688306056059
1626177992767.52,-15.3717154707569
1626177992770.84,-15.3713548626131
1626177992774.17,-15.3638542132204
1626177992777.5,-15.3677487811743
1626177992780.82,-15.3734463898476
1626177992784.15,-15.3801537013237
1626177992787.48,-15.3888082967768
1626177992790.8,-15.3802258229525
1626177992794.13,-15.3872216209437
1626177992797.45,-15.3719318356433
1626177992800.78,-15.3865725262848
1626177992804.11,-15.3775573226878
1626177992807.43,-15.3638542132204
1626177992810.76,-15.3727972951886
1626177992814.09,-15.371066376098
1626177992817.41,-15.3778458092029
1626177992820.74,-15.3775573226878
1626177992824.07,-15.3859234316258
1626177992827.39,-15.3843367557927
1626177992830.72,-15.3800815796949
1626177992834.05,-15.4033047441607
1626177992837.37,-15.3919095268142
1626177992840.7,-15.3903228509811
1626177992844.02,-15.4028720143881
1626177992847.35,-15.4042423253348
1626177992850.68,-15.3820288636719
1626177992854,-15.3815240122705
1626177992857.33,-15.4038817171909
1626177992860.66,-15.4302782333229
1626177992863.98,-15.4136181370757
1626177992867.31,-15.3880149588603
1626177992870.64,-15.4081368932887
1626177992873.96,-15.4160702724541
1626177992877.29,-15.4105890286671
1626177992880.62,-15.4091465960916
1626177992883.94,-15.424436381392
1626177992887.27,-15.4245806246496
1626177992890.59,-15.4416734506695
1626177992893.92,-15.4330188552164
1626177992897.25,-15.4394376801774
1626177992900.57,-15.4492462216909
1626177992903.9,-15.4518426003268
1626177992907.23,-15.4561698980534
1626177992910.55,-15.4566026278261
1626177992913.88,-15.4496068298348
1626177992917.21,-15.4870379551694
1626177992920.53,-15.4863167388817
1626177992923.86,-15.4677093586575
1626177992927.19,-15.4780227515725
1626177992930.51,-15.481051859981
1626177992933.84,-15.4859561307378
1626177992937.16,-15.4828549007004
1626177992940.49,-15.4933125368729
1626177992943.82,-15.4845136981623
1626177992947.14,-15.493601023388
1626177992950.47,-15.5286521349731
1626177992953.8,-15.535431568078
1626177992957.12,-15.5417782714103
1626177992960.45,-15.5393261360319
1626177992963.78,-15.5195648097473
1626177992967.1,-15.5207187558077
1626177992970.43,-15.5291569863745
1626177992973.75,-15.5381721899715
1626177992977.08,-15.5378115818276
1626177992980.41,-15.5470431503109
1626177992983.73,-15.5517310561813
1626177992987.06,-15.5433649472433
1626177992990.39,-15.5428600958419
1626177992993.71,-15.5631983951567
1626177992997.04,-15.5727905717838
1626177993000.37,-15.5820221402672
1626177993003.69,-15.6001967907187
1626177993007.02,-15.6009180070064
1626177993010.35,-15.5694008552314
1626177993013.67,-15.5699778282616
1626177993017,-15.5756754369349
1626177993020.32,-15.5869985326527
1626177993023.65,-15.5732954231853
1626177993026.98,-15.5916864385231
1626177993030.3,-15.5980331418554
1626177993033.63,-15.5986101148856
1626177993036.96,-15.5762524099651
1626177993040.28,-15.5778390857982
1626177993043.61,-15.5673093279969
1626177993046.94,-15.5333400408435
1626177993050.26,-15.5204302692926
1626177993053.59,-15.5207908774365
1626177993056.92,-15.4715318049826
1626177993060.24,-15.4837203602457
1626177993063.57,-15.4838646035033
1626177993066.89,-15.4867494686543
1626177993070.22,-15.5031210783864
1626177993073.55,-15.5249018102767
1626177993076.87,-15.5538947050446
1626177993080.2,-15.5624771788689
1626177993083.53,-15.5749542206471
1626177993086.85,-15.6084907780279
1626177993090.18,-15.6313533343498
1626177993093.51,-15.6472922143092
1626177993096.83,-15.6447679573021
1626177993100.16,-15.6785930011979
1626177993103.49,-15.685011826159
1626177993106.81,-15.6973446246796
1626177993110.14,-15.695613705589
1626177993113.46,-15.7063598282766
1626177993116.79,-15.701744044035
1626177993120.12,-15.7139325992981
1626177993123.44,-15.7128507748664
1626177993126.77,-15.7263375194475
1626177993130.1,-15.7289338980834
1626177993133.42,-15.7321072497496
1626177993136.75,-15.7352084797869
1626177993140.08,-15.7459546024745
1626177993143.4,-15.7565564819046
1626177993146.73,-15.746459453876
1626177993150.05,-15.7705480778871
1626177993153.38,-15.7904536474292
1626177993156.71,-15.7675189694785
1626177993160.03,-15.7754523486438
1626177993163.36,-15.7640571312972
1626177993166.69,-15.7548976844427
1626177993170.01,-15.757061333306
1626177993173.34,-15.7658601720166
1626177993176.67,-15.8241344480675
1626177993179.99,-15.9120507135452
1626177993183.32,-15.992538451259
1626177993186.65,-16.0803825951079
1626177993189.97,-16.1177415988137
1626177993193.3,-16.0914893259393
1626177993196.62,-15.9817923285714
1626177993199.95,-15.731963006492
1626177993203.28,-15.5083859572871
1626177993206.6,-14.8716962184544
1626177993209.93,-14.0712182606719
1626177993213.26,-13.7923239221959
1626177993216.58,-13.7236641316013
1626177993219.91,-13.8779322955528
1626177993223.24,-14.0987687228642
1626177993226.56,-14.5965522046747
1626177993229.89,-15.067073710808
1626177993233.22,-15.2770918938031
1626177993236.54,-15.6511867822631
1626177993239.87,-15.7272751006216
1626177993243.19,-15.7100380313442
1626177993246.52,-15.6960464353617
1626177993249.85,-15.7018882872925
1626177993253.17,-15.7211447621757
1626177993256.5,-15.7365066691049
1626177993259.83,-15.736146060961
1626177993263.15,-15.7559795088744
1626177993266.48,-15.7855493766724
1626177993269.81,-15.784395430612
1626177993273.13,-15.8022815945484
1626177993276.46,-15.8192301773107
1626177993279.79,-15.8333660165508
1626177993283.11,-15.8283175025365
1626177993286.44,-15.8330054084069
1626177993289.76,-15.8272356781048
1626177993293.09,-15.8454824501851
1626177993296.42,-15.8396405982543
1626177993299.74,-15.8412272740873
1626177993303.07,-15.8355296654141
1626177993306.4,-15.8227641371207
1626177993309.72,-15.8115131630317
1626177993313.05,-15.8169222851899
1626177993316.38,-15.8192301773107
1626177993319.7,-15.8298320567408
1626177993323.03,-15.8361066384443
1626177993326.35,-15.8265144618171
1626177993329.68,-15.8307696379149
1626177993333.01,-15.8299041783695
1626177993336.33,-15.8496655046541
1626177993339.66,-15.8393521117392
1626177993342.99,-15.8380539224212
1626177993346.31,-15.8241344480675
1626177993349.64,-15.8248556643552
1626177993352.97,-15.820095636856
1626177993356.29,-15.8272356781048
1626177993359.62,-15.8266587050746
1626177993362.95,-15.8190859340532
1626177993366.27,-15.8164174337885
1626177993369.6,-15.8206004882575
1626177993372.92,-15.8214659478028
1626177993376.25,-15.8236295966661
1626177993379.58,-15.8105755818576
1626177993382.9,-15.7720626320914
1626177993386.23,-15.7613165094038
1626177993389.56,-15.7587201307678
1626177993392.88,-15.7574940630787
1626177993396.21,-15.7575661847074
1626177993399.54,-15.7503540218298
1626177993402.86,-15.7458824808457
1626177993406.19,-15.7466036971335
1626177993409.52,-15.7504261434586
1626177993412.84,-15.7210726405469
1626177993416.17,-15.690781556461
1626177993419.49,-15.6976331111947
1626177993422.82,-15.6620771482083
1626177993426.15,-15.6508261741193
1626177993429.47,-15.6456334168474
1626177993432.8,-15.6265933068506
1626177993436.13,-15.6084186563991
1626177993439.45,-15.5965907092799
1626177993442.78,-15.5749542206471
1626177993446.11,-15.5626935437552
1626177993449.43,-15.5589432190589
1626177993452.76,-15.5380279467139
1626177993456.09,-15.5386770413729
1626177993459.41,-15.5349267166766
1626177993462.74,-15.5109102142942
1626177993466.06,-15.5040586595605
1626177993469.39,-15.5143720524755
1626177993472.72,-15.5372346087974
1626177993476.04,-15.5625493004977
1626177993479.37,-15.5763966532226
1626177993482.7,-15.6002689123474
1626177993486.02,-15.6660438377909
1626177993489.35,-15.6688565813132
1626177993492.68,-15.6743378251002
1626177993496,-15.7380212233092
1626177993499.33,-15.7475412783076
1626177993502.66,-15.79982945917
1626177993505.98,-15.8097101223123
1626177993509.31,-15.8375490710198
1626177993512.63,-15.8704365337415
1626177993515.96,-15.8765668721875
1626177993519.29,-15.9333987156628
1626177993522.61,-15.9173877140746
1626177993525.94,-15.9061367399856
1626177993529.27,-15.9173877140746
1626177993532.59,-15.9434957436914
1626177993535.92,-15.9601558399386
1626177993539.25,-15.9740031926636
1626177993542.57,-15.9880669102749
1626177993545.9,-15.9998948573941
1626177993549.22,-16.0159779806111
1626177993552.55,-16.0068185337566
1626177993555.88,-16.0047991281508
1626177993559.2,-16.0408599425387
1626177993562.53,-16.0349459689791
1626177993565.86,-16.0423023751142
1626177993569.18,-16.0340805094338
1626177993572.51,-16.0253537923519
1626177993575.84,-16.0249931842081
1626177993579.16,-16.0554285115514
1626177993582.49,-16.0379750773877
1626177993585.82,-16.0559333629529
1626177993589.14,-16.0448266321214
1626177993592.47,-16.0717279996548
1626177993595.79,-16.0721607294274
1626177993599.12,-16.0579527685586
1626177993602.45,-16.0686267696174
1626177993605.77,-16.0762716622676
1626177993609.1,-16.0578806469298
1626177993612.43,-16.0542024438623
1626177993615.75,-16.0698528373066
1626177993619.08,-16.0614867283686
1626177993622.41,-16.0666073640117
1626177993625.73,-16.0738195268893
1626177993629.06,-16.0740358917756
1626177993632.39,-16.0749013513209
1626177993635.71,-16.0860802037812
1626177993639.04,-16.0767765136691
1626177993642.36,-16.0886765824171
1626177993645.69,-16.0931481234012
1626177993649.02,-16.0815365411683
1626177993652.34,-16.0767043920403
1626177993655.67,-16.0855032307509
1626177993659,-16.0836280684028
1626177993662.32,-16.1168040176396
1626177993665.65,-16.1193282746468
1626177993668.98,-16.1003602862788
1626177993672.3,-16.0829789737438
1626177993675.63,-16.0774977299568
1626177993678.96,-16.1124045982843
1626177993682.28,-16.1113948954815
1626177993685.61,-16.1098803412772
1626177993688.93,-16.0991342185896
1626177993692.26,-16.1024518135133
1626177993695.59,-16.1106736791937
1626177993698.91,-16.1072839626412
1626177993702.24,-16.1268289240395
1626177993705.57,-16.119905247677
1626177993708.89,-16.1165876527533
1626177993712.22,-16.1259634644942
1626177993715.55,-16.1188955448741
1626177993718.87,-16.1184628151015
1626177993722.2,-16.1419744660824
1626177993725.52,-16.1381520197573
1626177993728.85,-16.1328150192279
1626177993732.18,-16.1213476802525
1626177993735.5,-16.1258192212366
1626177993738.83,-16.1552448457771
1626177993742.16,-16.1537302915728
1626177993745.48,-16.1506290615355
1626177993748.81,-16.1457969124075
1626177993752.14,-16.1606539679353
1626177993755.46,-16.1611588193368
1626177993758.79,-16.1618800356245
1626177993762.12,-16.1623848870259
1626177993765.44,-16.1621685221396
1626177993768.77,-16.1637551979727
1626177993772.09,-16.1614473058519
1626177993775.42,-16.1744291990315
1626177993778.75,-16.178756496758
1626177993782.07,-16.1887092815291
1626177993785.4,-16.1737079827437
1626177993788.73,-16.193902038801
1626177993792.05,-16.1981572148987
1626177993795.38,-16.178756496758
1626177993798.71,-16.1784680102429
1626177993802.03,-16.186185024522
1626177993805.36,-16.2024123909965
1626177993808.69,-16.2025566342541
1626177993812.01,-16.2008257151634
1626177993815.34,-16.1880601868701
1626177993818.66,-16.1962820525506
1626177993821.99,-16.1978687283836
1626177993825.32,-16.1967147823232
1626177993828.64,-16.1971475120959
1626177993831.97,-16.195488714634
1626177993835.3,-16.2113554729647
1626177993838.62,-16.2044317966022
1626177993841.95,-16.2210918928494
1626177993845.28,-16.2169809600092
1626177993848.6,-16.2145288246308
1626177993851.93,-16.2056578642914
1626177993855.26,-16.2067396887231
1626177993858.58,-16.2430168679973
1626177993861.91,-16.233785299514
1626177993865.23,-16.213519121828
1626177993868.56,-16.2285925422421
1626177993871.89,-16.2309004343629
1626177993875.21,-16.2021960261102
1626177993878.54,-16.2272222312954
1626177993881.87,-16.2218131091372
1626177993885.19,-16.2288810287572
1626177993888.52,-16.2018354179663
1626177993891.85,-16.1936135522859
1626177993895.17,-16.1777467939552
1626177993898.5,-16.1584181974433
1626177993901.82,-16.1638273196015
1626177993905.15,-16.1008651376802
1626177993908.48,-16.0724492159425
1626177993911.8,-16.072954067344
1626177993915.13,-16.1090148817319
1626177993918.46,-16.1463738854377
1626177993921.78,-16.143705385173
1626177993925.11,-16.1532254401714
1626177993928.44,-16.1500520885053
1626177993931.76,-16.1496193587326
1626177993935.09,-16.1602212381627
1626177993938.42,-16.2230391768264
1626177993941.74,-16.2435938410275
1626177993945.07,-16.2442429356865
1626177993948.39,-16.2656630594329
1626177993951.72,-16.2680430731825
1626177993955.05,-16.2924201837087
1626177993958.37,-16.2839098315131
1626177993961.7,-16.2833328584829
1626177993965.03,-16.2841261963995
1626177993968.35,-16.2944395893144
1626177993971.68,-16.2984784005259
1626177993975.01,-16.2972523328367
1626177993978.33,-16.3010747791618
1626177993981.66,-16.3113160504479
1626177993984.99,-16.3086475501832
1626177993988.31,-16.3237930922262
1626177993991.64,-16.3325919309368
1626177993994.96,-16.314200915599
1626177993998.29,-16.3156433481745
1626177994001.62,-16.3189609430982
1626177994004.94,-16.3138403074551
1626177994008.27,-16.3276155385513
1626177994011.6,-16.3315101065052
1626177994014.92,-16.3250912815441
1626177994018.25,-16.344419878056
1626177994021.58,-16.3473047432071
1626177994024.9,-16.3347555798001
1626177994028.23,-16.3372798368072
1626177994031.56,-16.4139451281959
1626177994034.88,-16.5080638537483
1626177994038.21,-16.5690066300638
1626177994041.53,-16.6369452043706
1626177994044.86,-16.6526677194438
1626177994048.19,-16.591797064757
1626177994051.51,-16.451881104932
1626177994054.84,-16.1998881339894
1626177994058.17,-15.9688104353917
1626177994061.49,-15.3609693480694
1626177994064.82,-14.6159529228154
1626177994068.15,-14.402184415124
1626177994071.47,-14.3291973268029
1626177994074.8,-14.5140450613552
1626177994078.12,-14.7313475288567
1626177994081.45,-15.1984071968087
1626177994084.78,-15.6819105961216
1626177994088.1,-15.8823366024895
1626177994091.43,-16.1881323084989
1626177994094.76,-16.2606145454186
1626177994098.08,-16.2505896390187
1626177994101.41,-16.2396992730736
1626177994104.74,-16.2065233238367
1626177994108.06,-16.2190003656149
1626177994111.39,-16.2523926797381
1626177994114.72,-16.2570084639798
1626177994118.04,-16.2515993418216
1626177994121.37,-16.2823231556801
1626177994124.69,-16.2912662376483
1626177994128.02,-16.2870110615505
1626177994131.35,-16.3162203212047
1626177994134.67,-16.3219900515068
1626177994138,-16.3023729684798
1626177994141.33,-16.3108833206753
1626177994144.65,-16.2955935353748
1626177994147.98,-16.314850010258
1626177994151.31,-16.3129748479098
1626177994154.63,-16.321268835219
1626177994157.96,-16.3226391461657
1626177994161.29,-16.3126142397659
1626177994164.61,-16.3196821593859
1626177994167.94,-16.3131912127961
1626177994171.26,-16.3044644957142
1626177994174.59,-16.3286252413541
1626177994177.92,-16.3259567410894
1626177994181.24,-16.3214130784766
1626177994184.57,-16.2911941160195
1626177994187.9,-16.2821789124225
1626177994191.22,-16.2871553048081
1626177994194.55,-16.2709279383335
1626177994197.88,-16.2746782630298
1626177994201.2,-16.2750388711737
1626177994204.53,-16.2704230869321
1626177994207.86,-16.2666727622357
1626177994211.18,-16.2647975998876
1626177994214.51,-16.2601096940171
1626177994217.83,-16.2725146141666
1626177994221.16,-16.2531138960259
1626177994224.49,-16.2280876908407
1626177994227.81,-16.2284482989846
1626177994231.14,-16.2179185411833
1626177994234.47,-16.2098409187604
1626177994237.79,-16.2101294052755
1626177994241.12,-16.2112833513359
1626177994244.45,-16.2044317966022
1626177994247.77,-16.1937577955434
1626177994251.1,-16.2043596749734
1626177994254.43,-16.1577691027843
1626177994257.75,-16.1483211694147
1626177994261.08,-16.1418302228248
1626177994264.4,-16.1356998843789
1626177994267.73,-16.124737396805
1626177994271.06,-16.1046154623765
1626177994274.38,-16.0976917860141
1626177994277.71,-16.0766322704115
1626177994281.04,-16.0554285115514
1626177994284.36,-16.025642278867
1626177994287.69,-16.0197283053074
1626177994291.02,-15.9972263571294
1626177994294.34,-16.0042221551206
1626177994297.67,-15.963906164635
1626177994300.99,-15.9511406363416
1626177994304.32,-15.9439284734641
1626177994307.65,-15.9227968362328
1626177994310.97,-15.9237344174068
1626177994314.3,-15.9303696072542
1626177994317.63,-15.908877361879
1626177994320.95,-15.917243470817
1626177994324.28,-15.9305138505118
1626177994327.61,-15.907290686046
1626177994330.93,-15.9270520123305
1626177994334.26,-15.9405387569116
1626177994337.59,-15.9902305591381
1626177994340.91,-16.0249931842081
1626177994344.24,-16.0445381456063
1626177994347.56,-16.0766322704115
1626177994350.89,-16.1091591249894
1626177994354.22,-16.1307234919934
1626177994357.54,-16.1778910372127
1626177994360.87,-16.2100572836467
1626177994364.2,-16.2253470689472
1626177994367.52,-16.2364537997787
1626177994370.85,-16.2625618293955
1626177994374.18,-16.2698461139019
1626177994377.5,-16.2831164935966
1626177994380.83,-16.3160039563184
1626177994384.16,-16.3317264713915
1626177994387.48,-16.3439150266546
1626177994390.81,-16.3396598505568
1626177994394.13,-16.3610078526745
1626177994397.46,-16.393967437025
1626177994400.79,-16.3731242863088
1626177994404.11,-16.3709606374455
1626177994407.44,-16.3755764216872
1626177994410.77,-16.3740618674829
1626177994414.09,-16.3769467326339
1626177994417.42,-16.392669247707
1626177994420.75,-16.3864667876323
1626177994424.07,-16.3815625168756
1626177994427.4,-16.390433477215
1626177994430.73,-16.410699654901
1626177994434.05,-16.4389713333811
1626177994437.38,-16.4086802492953
1626177994440.7,-16.3928134909646
1626177994444.03,-16.4154596824002
1626177994447.36,-16.3967080589185
1626177994450.68,-16.4034153703946
1626177994454.01,-16.4046414380838
1626177994457.34,-16.4173348447484
1626177994460.66,-16.4233930615655
1626177994463.99,-16.4290906702388
1626177994467.32,-16.4301724946705
1626177994470.64,-16.4131517902794
1626177994473.97,-16.3977177617213
1626177994477.29,-16.4179118177786
1626177994480.62,-16.3896401392985
1626177994483.95,-16.3992323159256
1626177994487.27,-16.4143778579686
1626177994490.6,-16.4140893714534
1626177994493.93,-16.4205081964145
1626177994497.25,-16.409401465583
1626177994500.58,-16.4310379542158
1626177994503.91,-16.4333458463366
1626177994507.23,-16.4139451281959
1626177994510.56,-16.4084638844089
1626177994513.89,-16.406516600432
1626177994517.21,-16.4086081276665
1626177994520.54,-16.4144499795973
1626177994523.86,-16.4146663444837
1626177994527.19,-16.4245470076259
1626177994530.52,-16.4032711271371
1626177994533.84,-16.4101226818708
1626177994537.17,-16.4105554116434
1626177994540.5,-16.4328409949352
1626177994543.82,-16.4427937797062
1626177994547.15,-16.4254845888
1626177994550.48,-16.4231045750504
1626177994553.8,-16.4068050869471
1626177994557.13,-16.4227439669065
1626177994560.46,-16.4109160197873
1626177994563.78,-16.4108438981585
1626177994567.11,-16.4006747485012
1626177994570.43,-16.4002420187285
1626177994573.76,-16.3997371673271
1626177994577.09,-16.4205081964145
1626177994580.41,-16.4233209399368
1626177994583.74,-16.4128633037643
1626177994587.07,-16.4254845888
1626177994590.39,-16.4326967516776
1626177994593.72,-16.4112045063024
1626177994597.05,-16.4200754666418
1626177994600.37,-16.4228882101641
1626177994603.7,-16.4378173873207
1626177994607.03,-16.4116372360751
1626177994610.35,-16.426782778118
1626177994613.68,-16.4088966141816
1626177994617,-16.4269270213755
1626177994620.33,-16.4197869801267
1626177994623.66,-16.4086802492953
1626177994626.98,-16.4204360747857
1626177994630.31,-16.4062281139169
1626177994633.64,-16.3974292752062
1626177994636.96,-16.4143778579686
1626177994640.29,-16.4091129790679
1626177994643.62,-16.4221669938763
1626177994646.94,-16.4158924121728
1626177994650.27,-16.4126469388779
1626177994653.59,-16.410699654901
1626177994656.92,-16.4251239806561
1626177994660.25,-16.4306773460719
1626177994663.57,-16.4398367929264
1626177994666.9,-16.4431543878501
1626177994670.23,-16.4366634412603
1626177994673.55,-16.4566411324312
1626177994676.88,-16.4545496051967
1626177994680.21,-16.4604635787563
1626177994683.53,-16.4544053619391
1626177994686.86,-16.4537562672801
1626177994690.19,-16.4654399711418
1626177994693.51,-16.4633484439073
1626177994696.84,-16.4454622799709
1626177994700.16,-16.4409907389868
1626177994703.49,-16.4517368616744
1626177994706.82,-16.4575787136053
1626177994710.14,-16.462482984362
1626177994713.47,-16.4287300620949
1626177994716.8,-16.4396204280401
1626177994720.12,-16.4303888595568
1626177994723.45,-16.4495010911824
1626177994726.78,-16.4603914571275
1626177994730.1,-16.457001740575
1626177994733.43,-16.4606078220138
1626177994736.76,-16.4495010911824
1626177994740.08,-16.4228882101641
1626177994743.41,-16.4477701720917
1626177994746.73,-16.4465441044026
1626177994750.06,-16.438033752207
1626177994753.39,-16.4282252106935
1626177994756.71,-16.4460392530011
1626177994760.04,-16.4508714021291
1626177994763.37,-16.4696230256108
1626177994766.69,-16.4239700345957
1626177994770.02,-16.4272155078906
1626177994773.35,-16.4252682239137
1626177994776.67,-16.4368076845178
1626177994780,-16.4365913196315
1626177994783.33,-16.419714858498
1626177994786.65,-16.3905055988438
1626177994789.98,-16.3957704777444
1626177994793.3,-16.390433477215
1626177994796.63,-16.3695903264988
1626177994799.96,-16.3631715015377
1626177994803.28,-16.3456459457452
1626177994806.61,-16.3015796305632
1626177994809.94,-16.2899680483303
1626177994813.26,-16.2876601562095
1626177994816.59,-16.2907613862468
1626177994819.92,-16.3211967135902
1626177994823.24,-16.3476653513509
1626177994826.57,-16.3436986617683
1626177994829.9,-16.353435081653
1626177994833.22,-16.3489635406689
1626177994836.55,-16.3713212455894
1626177994839.87,-16.3872601255489
1626177994843.2,-16.4140172498247
1626177994846.53,-16.417767574521
1626177994849.85,-16.4346440356546
1626177994853.18,-16.4313985623596
1626177994856.51,-16.4395483064113
1626177994859.83,-16.4456065232285
1626177994863.16,-16.4369519277754
1626177994866.49,-16.4384664819797
1626177994869.81,-16.4402695226991
1626177994873.14,-16.4465441044026
1626177994876.46,-16.4656563360281
1626177994879.79,-16.4614732815591
1626177994883.12,-16.4559199161434
1626177994886.44,-16.4465441044026
1626177994889.77,-16.4440198473954
1626177994893.1,-16.458299929893
1626177994896.42,-16.450582915614
1626177994899.75,-16.4632763222785
1626177994903.08,-16.4517368616744
1626177994906.4,-16.4374567791768
1626177994909.73,-16.4555593079995
1626177994913.06,-16.4591653894383
1626177994916.38,-16.4514483751593
1626177994919.71,-16.4530350509924
1626177994923.03,-16.4463277395162
1626177994926.36,-16.4495732128111
1626177994929.69,-16.4468325909177
1626177994933.01,-16.5212621118143
1626177994936.34,-16.5708096707832
1626177994939.67,-16.707263792427
1626177994942.99,-16.7705144608634
1626177994946.32,-16.7823424079826
1626177994949.65,-16.7219044830685
1626177994952.97,-16.5850176316521
1626177994956.3,-16.4376731440631
1626177994959.63,-16.0169155617852
1626177994962.95,-15.3147393840241
1626177994966.28,-14.873427137545
1626177994969.6,-14.3355440301352
1626177994972.93,-14.3176578661988
1626177994976.26,-14.3759321422496
1626177994979.58,-14.8108976853964
1626177994982.91,-15.3057241804271
1626177994986.24,-15.5600250434905
1626177994989.56,-15.9740031926636
1626177994992.89,-16.2414301921642
1626177994996.22,-16.2804479933319
1626177994999.54,-16.2560708828057
1626177995002.87,-16.2479932603828
1626177995006.2,-16.2481375036404
1626177995009.52,-16.2906171429893
1626177995012.85,-16.2901844132166
1626177995016.17,-16.292636548595
1626177995019.5,-16.3279040250664
1626177995022.83,-16.3372077151785
1626177995026.15,-16.3561035819177
1626177995029.48,-16.3436265401395
1626177995032.81,-16.3493241488128
1626177995036.13,-16.3520647707063
1626177995039.46,-16.3566084333191
1626177995042.79,-16.3565363116904
1626177995046.11,-16.364686055742
1626177995049.44,-16.3413907696475
1626177995052.76,-16.3576902577508
1626177995056.09,-16.361801190591
1626177995059.42,-16.3426168373366
1626177995062.74,-16.3467998918056
1626177995066.07,-16.3400925803295
1626177995069.4,-16.3525696221077
1626177995072.72,-16.3457901890028
1626177995076.05,-16.3271828087786
1626177995079.38,-16.2996323465863
1626177995082.7,-16.307132995979
1626177995086.03,-16.3030220631387
1626177995089.36,-16.3072051176077
1626177995092.68,-16.2936462513979
1626177995096.01,-16.2864340885203
1626177995099.33,-16.2912662376483
1626177995102.66,-16.2751831144313
1626177995105.99,-16.2777794930672
1626177995109.31,-16.2738849251133
1626177995112.64,-16.2700624787882
1626177995115.97,-16.2482096252691
1626177995119.29,-16.2732358304543
1626177995122.62,-16.2639321403423
1626177995125.95,-16.253402382541
1626177995129.27,-16.2518157067079
1626177995132.6,-16.2262125284925
1626177995135.93,-16.2201543116753
1626177995139.25,-16.2016911747087
1626177995142.58,-16.2100572836467
1626177995145.9,-16.1911614169075
1626177995149.23,-16.1705346310776
1626177995152.56,-16.1711837257366
1626177995155.88,-16.1444266014608
1626177995159.21,-16.1369259520681
1626177995162.54,-16.1266125591531
1626177995165.86,-16.0994948267335
1626177995169.19,-16.0648043232923
1626177995172.52,-16.0681940398448
1626177995175.84,-16.0509569705673
1626177995179.17,-16.0238392381476
1626177995182.5,-16.0203773999664
1626177995185.82,-15.9759504766405
1626177995189.15,-15.9730656114895
1626177995192.47,-15.9245277553234
1626177995195.8,-15.9615261508854
1626177995199.13,-15.8985639689641
1626177995202.45,-15.8985639689641
1626177995205.78,-15.8755571693846
1626177995209.11,-15.8612049652582
1626177995212.43,-15.8449054771549
1626177995215.76,-15.8354575437853
1626177995219.09,-15.8311302460587
1626177995222.41,-15.8358181519292
1626177995225.74,-15.8295435702257
1626177995229.06,-15.8401454496557
1626177995232.39,-15.8362508817018
1626177995235.72,-15.8581037352209
1626177995239.04,-15.9021700504029
1626177995242.37,-15.9128440514617
1626177995245.7,-15.9696037733083
1626177995249.02,-15.9997506141365
1626177995252.35,-15.9967215057279
1626177995255.68,-16.0431678346596
1626177995259,-16.0677613100721
1626177995262.33,-16.091272961053
1626177995265.66,-16.1093754898757
1626177995268.98,-16.1391617225601
1626177995272.31,-16.1496193587326
1626177995275.63,-16.1757273883495
1626177995278.96,-16.1843819838026
1626177995282.29,-16.189069889673
1626177995285.61,-16.2184955142135
1626177995288.94,-16.2079657564122
1626177995292.27,-16.2202985549329
1626177995295.59,-16.2221015956523
1626177995298.92,-16.2107063783057
1626177995302.25,-16.2123651757676
1626177995305.57,-16.2213082577358
1626177995308.9,-16.2367422862938
1626177995312.23,-16.2420792868232
1626177995315.55,-16.2396992730736
1626177995318.88,-16.2544842069726
1626177995322.2,-16.2615521265927
1626177995325.53,-16.228304055727
1626177995328.86,-16.2565036125783
1626177995332.18,-16.2455411250044
1626177995335.51,-16.2540514772
1626177995338.84,-16.2580902884114
1626177995342.16,-16.2537629906849
1626177995345.49,-16.269485505758
1626177995348.82,-16.2679709515537
1626177995352.14,-16.2577296802675
1626177995355.47,-16.2581624100402
1626177995358.8,-16.2446035438303
1626177995362.12,-16.2435938410275
1626177995365.45,-16.2447477870879
1626177995368.77,-16.2550611800028
1626177995372.1,-16.2327034750823
1626177995375.43,-16.2269337447803
1626177995378.75,-16.2301070964464
1626177995382.08,-16.2456132466332
1626177995385.41,-16.234434394173
1626177995388.73,-16.2300349748176
1626177995392.06,-16.2298907315601
1626177995395.39,-16.2533302609122
1626177995398.71,-16.2397713947024
1626177995402.04,-16.2393386649297
1626177995405.36,-16.243088989626
1626177995408.69,-16.2332083264838
1626177995412.02,-16.2301792180752
1626177995415.34,-16.2202985549329
1626177995418.67,-16.2296743666738
1626177995422,-16.2424398949671
1626177995425.32,-16.2275107178105
1626177995428.65,-16.2242652445156
1626177995431.98,-16.2112112297071
1626177995435.3,-16.2124372973963
1626177995438.63,-16.1984457014138
1626177995441.96,-16.2007535935347
1626177995445.28,-16.2186397574711
1626177995448.61,-16.2121488108812
1626177995451.93,-16.2132306353129
1626177995455.26,-16.1896468627032
1626177995458.59,-16.1931087008844
1626177995461.91,-16.1988063095577
1626177995465.24,-16.2110669864496
1626177995468.57,-16.189718984332
1626177995471.89,-16.1917383899377
1626177995475.22,-16.1856801731205
1626177995478.55,-16.1747898071754
1626177995481.87,-16.2061627156928
1626177995485.2,-16.1931087008844
1626177995488.53,-16.1897911059607
1626177995491.85,-16.2021960261102
1626177995495.18,-16.2219573523947
1626177995498.5,-16.2104900134194
1626177995501.83,-16.190656565506
1626177995505.16,-16.1944790118312
1626177995508.48,-16.1944068902024
1626177995511.81,-16.1778910372127
1626177995515.14,-16.1949117416038
1626177995518.46,-16.1994554042167
1626177995521.79,-16.1962820525506
1626177995525.12,-16.2019796612238
1626177995528.44,-16.2146730678884
1626177995531.77,-16.1791892265307
1626177995535.1,-16.1838050107723
1626177995538.42,-16.1755110234631
1626177995541.75,-16.1831559161134
1626177995545.07,-16.175871631607
1626177995548.4,-16.1849589568328
1626177995551.73,-16.1804152942199
1626177995555.05,-16.1834444026285
1626177995558.38,-16.1801268077048
1626177995561.71,-16.1949838632326
1626177995565.03,-16.1937577955434
1626177995568.36,-16.2041433100871
1626177995571.69,-16.1878438219838
1626177995575.01,-16.1742128341452
1626177995578.34,-16.1713279689941
1626177995581.67,-16.1879159436126
1626177995584.99,-16.1739243476301
1626177995588.32,-16.1564709134663
1626177995591.64,-16.1714722122517
1626177995594.97,-16.1633945898288
1626177995598.3,-16.1684431038431
1626177995601.62,-16.1733473745999
1626177995604.95,-16.1582018325569
1626177995608.28,-16.1633224682
1626177995611.6,-16.1542351429743
1626177995614.93,-16.1599327516476
1626177995618.26,-16.159139413731
1626177995621.58,-16.1598606300188
1626177995624.91,-16.1627454951698
1626177995628.23,-16.1548121160045
1626177995631.56,-16.1429120472565
1626177995634.89,-16.1509896696794
1626177995638.21,-16.1538745348304
1626177995641.54,-16.1600769949051
1626177995644.87,-16.1428399256277
1626177995648.19,-16.1322380461977
1626177995651.52,-16.124737396805
1626177995654.85,-16.1108179224513
1626177995658.17,-16.1258913428654
1626177995661.5,-16.1258192212366
1626177995664.83,-16.1305792487358
1626177995668.15,-16.1214919235101
1626177995671.48,-16.1155058283217
1626177995674.8,-16.1173088690411
1626177995678.13,-16.1198331260482
1626177995681.46,-16.1250258833201
1626177995684.78,-16.1156500715792
1626177995688.11,-16.1232228426007
1626177995691.44,-16.1232228426007
1626177995694.76,-16.1193282746468
1626177995698.09,-16.1250980049489
1626177995701.42,-16.1066348679823
1626177995704.74,-16.1095918547621
1626177995708.07,-16.1220688965403
1626177995711.4,-16.1058415300657
1626177995714.72,-16.1204100990784
1626177995718.05,-16.1003602862788
1626177995721.37,-16.1035336379449
1626177995724.7,-16.1037500028312
1626177995728.03,-16.0976917860141
1626177995731.35,-16.1031009081722
1626177995734.68,-16.0992784618471
1626177995738.01,-16.1059857733233
1626177995741.33,-16.1052645570355
1626177995744.66,-16.0958166236659
1626177995747.99,-16.0798056220777
1626177995751.31,-16.0863686902963
1626177995754.64,-16.097403299499
1626177995757.97,-16.0942299478328
1626177995761.29,-16.1090148817319
1626177995764.62,-16.1100967061635
1626177995767.94,-16.0861523254099
1626177995771.27,-16.0817529060546
1626177995774.6,-16.0910565961667
1626177995777.92,-16.0860802037812
1626177995781.25,-16.090623866394
1626177995784.58,-16.098340880673
1626177995787.9,-16.0955281371508
1626177995791.23,-16.0702855670793
1626177995794.56,-16.0680497965872
1626177995797.88,-16.0741080134044
1626177995801.21,-16.0630012825729
1626177995804.53,-16.0640109853758
1626177995807.86,-16.0712952698821
1626177995811.19,-16.0511733354537
1626177995814.51,-16.0526157680292
1626177995817.84,-16.0332150498885
1626177995821.17,-16.0085494528472
1626177995824.49,-15.9960002894402
1626177995827.82,-15.9710462058838
1626177995831.15,-15.9093822132805
1626177995834.47,-15.907939780705
1626177995837.8,-15.9119064702876
1626177995841.13,-15.9490491091072
1626177995844.45,-15.9570546099013
1626177995847.78,-15.975806233383
1626177995851.1,-15.9665746648997
1626177995854.43,-15.9683777056191
1626177995857.76,-15.983523247662
1626177995861.08,-16.0172040483003
1626177995864.41,-16.0253537923519
1626177995867.74,-16.0509569705673
1626177995871.06,-16.04785574053
1626177995874.39,-16.0480721054163
1626177995877.72,-16.0585297415888
1626177995881.04,-16.0694201075339
1626177995884.37,-16.0627127960578
1626177995887.7,-16.0576642820435
1626177995891.02,-16.054274565491
1626177995894.35,-16.0777140948432
1626177995897.67,-16.0601885390506
1626177995901,-16.0889650689322
1626177995904.33,-16.0653091746937
1626177995907.65,-16.0518224301127
1626177995910.98,-16.0616309716262
1626177995914.31,-16.0884602175308
1626177995917.63,-16.0720886077987
1626177995920.96,-16.072304972685
1626177995924.29,-16.0741080134044
1626177995927.61,-16.0817529060546
1626177995930.94,-16.0656697828376
1626177995934.27,-16.0875947579854
1626177995937.59,-16.0680497965872
1626177995940.92,-16.0799498653352
1626177995944.24,-16.0662467558678
1626177995947.57,-16.0660303909815
1626177995950.9,-16.0699249589354
1626177995954.22,-16.0704298103368
1626177995957.55,-16.1064185030959
1626177995960.88,-16.1440659933169
1626177995964.2,-16.2572248288661
1626177995967.53,-16.3498290002142
1626177995970.86,-16.3930298558509
1626177995974.18,-16.3644696908557
1626177995977.51,-16.2341459076579
1626177995980.83,-16.1149288552915
1626177995984.16,-15.771846267205
1626177995987.49,-15.1424408128787
1626177995990.81,-14.7538494770347
1626177995994.14,-14.0881668434342
1626177995997.47,-13.9753686160289
1626177996000.79,-13.9796959137554
1626177996004.12,-14.3082099328291
1626177996007.45,-14.7777938577883
1626177996010.77,-15.0180310032405
1626177996014.1,-15.4527080598722
1626177996017.43,-15.8195907854546
1626177996020.75,-15.9077955374474
1626177996024.08,-15.917892565476
1626177996027.4,-15.868994101166
1626177996030.73,-15.879307494081
1626177996034.06,-15.8782977912781
1626177996037.38,-15.8976985094188
1626177996040.71,-15.9147192138099
1626177996044.04,-15.9348411482383
1626177996047.36,-15.9442890816079
1626177996050.69,-15.9461642439561
1626177996054.02,-15.9608049345976
1626177996057.34,-15.9526551905459
1626177996060.67,-15.9472460683878
1626177996064,-15.9718395438003
1626177996067.32,-15.9615982725141
1626177996070.65,-15.9709019626262
1626177996073.97,-15.9489048658496
1626177996077.3,-15.9706134761111
1626177996080.63,-15.9890766130777
1626177996083.95,-15.9512127579704
1626177996087.28,-15.9442169599792
1626177996090.61,-15.9544582312653
1626177996093.93,-15.9251047283536
1626177996097.26,-15.9405387569116
1626177996100.59,-15.9299368774816
1626177996103.91,-15.924960485096
1626177996107.24,-15.9279895935046
1626177996110.57,-15.9186137817638
1626177996113.89,-15.8924336305182
1626177996117.22,-15.9199840927105
1626177996120.54,-15.909526456538
1626177996123.87,-15.8908469546851
1626177996127.2,-15.8873129948751
1626177996130.52,-15.8883226976779
1626177996133.85,-15.8780814263918
1626177996137.18,-15.8637292222654
1626177996140.5,-15.8513964237447
1626177996143.83,-15.8516127886311
1626177996147.16,-15.8533437077217
1626177996150.48,-15.8425254634053
1626177996153.81,-15.8441121392384
1626177996157.14,-15.8283896241653
1626177996160.46,-15.806608892275
1626177996163.79,-15.8084119329944
1626177996167.11,-15.8201677584848
1626177996170.44,-15.78922757974
1626177996173.77,-15.7735050646669
1626177996177.09,-15.7680238208799
1626177996180.42,-15.7576383063362
1626177996183.75,-15.7352084797869
1626177996187.07,-15.7231641677814
1626177996190.4,-15.6939549081272
1626177996193.73,-15.6744099467289
1626177996197.05,-15.6636638240413
1626177996200.38,-15.6465709980215
1626177996203.7,-15.6347430509023
1626177996207.03,-15.6253672391614
1626177996210.36,-15.603298020756
1626177996213.68,-15.5833203295851
1626177996217.01,-15.5794257616312
1626177996220.34,-15.5615395976948
1626177996223.66,-15.5455285961066
1626177996226.99,-15.5411291767513
1626177996230.32,-15.4890573607752
1626177996233.64,-15.4708827103237
1626177996236.97,-15.460785682295
1626177996240.3,-15.4539341275613
1626177996243.62,-15.4428273967299
1626177996246.95,-15.4427552751011
1626177996250.27,-15.4236430434755
1626177996253.6,-15.4382116124882
1626177996256.93,-15.4467219646838
1626177996260.25,-15.4529965463873
1626177996263.58,-15.4641032772187
1626177996266.91,-15.4786718462314
1626177996270.23,-15.5300224459198
1626177996273.56,-15.5494952856893
1626177996276.89,-15.57949788326
1626177996280.21,-15.6041634803013
1626177996283.54,-15.6320745506376
1626177996286.87,-15.6470037277941
1626177996290.19,-15.676645717221
1626177996293.52,-15.7014555575199
1626177996296.84,-15.7142210858132
1626177996300.17,-15.7401127505437
1626177996303.5,-15.7696826183418
1626177996306.82,-15.7701153481144
1626177996310.15,-15.7780487272798
1626177996313.48,-15.7830972412941
1626177996316.8,-15.7980985400794
1626177996320.13,-15.8110083116303
1626177996323.46,-15.8136046902662
1626177996326.78,-15.8198071503409
1626177996330.11,-15.8119458928044
1626177996333.44,-15.826225975302
1626177996336.76,-15.833293894922
1626177996340.09,-15.8360345168155
1626177996343.41,-15.8408666659435
1626177996346.74,-15.8253605157567
1626177996350.07,-15.8477903423059
1626177996353.39,-15.8250720292416
1626177996356.72,-15.8221871640905
1626177996360.05,-15.8408666659435
1626177996363.37,-15.8278847727638
1626177996366.7,-15.8345199626112
1626177996370.03,-15.8607001138568
1626177996373.35,-15.8628637627201
1626177996376.68,-15.858392221736
1626177996380,-15.809493757426
1626177996383.33,-15.8133162037511
1626177996386.66,-15.8477182206772
1626177996389.98,-15.8353133005277
1626177996393.31,-15.8266587050746
1626177996396.64,-15.8439678959808
1626177996399.96,-15.8477182206772
1626177996403.29,-15.8237738399236
1626177996406.62,-15.8163453121597
1626177996409.94,-15.8418763687463
1626177996413.27,-15.8211053396589
1626177996416.6,-15.8331496516645
1626177996419.92,-15.8350248140126
1626177996423.25,-15.821393826174
1626177996426.57,-15.8402896929133
1626177996429.9,-15.8139652984101
1626177996433.23,-15.8086282978807
1626177996436.55,-15.822042920833
1626177996439.88,-15.8159847040158
1626177996443.21,-15.8194465421971
1626177996446.53,-15.8444006257535
1626177996449.86,-15.8130998388648
1626177996453.19,-15.822692015492
1626177996456.51,-15.8084840546231
1626177996459.84,-15.810142852085
1626177996463.17,-15.8112967981454
1626177996466.49,-15.8040846352678
1626177996469.82,-15.7748032539848
1626177996473.14,-15.8061040408735
1626177996476.47,-15.7959348912161
1626177996479.8,-15.8009112836017
1626177996483.12,-15.7993967293974
1626177996486.45,-15.792112444891
1626177996489.78,-15.8128113523497
1626177996493.1,-15.8052385813282
1626177996496.43,-15.8047337299268
1626177996499.76,-15.8034355406088
1626177996503.08,-15.8032191757225
1626177996506.41,-15.7931221476939
1626177996509.74,-15.8086282978807
1626177996513.06,-15.8168501635611
1626177996516.39,-15.7973052021629
1626177996519.71,-15.8139652984101
1626177996523.04,-15.8004064322002
1626177996526.37,-15.7955021614435
1626177996529.69,-15.79276153955
1626177996533.02,-15.7918239583759
1626177996536.35,-15.8027143243211
1626177996539.67,-15.8070416220476
1626177996543,-15.8214659478028
1626177996546.33,-15.7934827558378
1626177996549.65,-15.7847560387559
1626177996552.98,-15.7817269303473
1626177996556.3,-15.801127648488
1626177996559.63,-15.8091331492821
1626177996562.96,-15.8051664596994
1626177996566.28,-15.7871360525055
1626177996569.61,-15.7983149049657
1626177996572.94,-15.7951415532996
1626177996576.26,-15.8014161350031
1626177996579.59,-15.7949251884133
1626177996582.92,-15.7947809451557
1626177996586.24,-15.8011997701168
1626177996589.57,-15.8164895554172
1626177996592.9,-15.8206004882575
1626177996596.22,-15.8048779731843
1626177996599.55,-15.8225477722344
1626177996602.87,-15.8089889060246
1626177996606.2,-15.8107198251152
1626177996609.53,-15.8104313386001
1626177996612.85,-15.7979542968219
1626177996616.18,-15.808195568108
1626177996619.51,-15.7945645802694
1626177996622.83,-15.8043010001541
1626177996626.16,-15.8053828245858
1626177996629.49,-15.7960070128449
1626177996632.81,-15.7853330117861
1626177996636.14,-15.8019209864045
1626177996639.47,-15.8023537161772
1626177996642.79,-15.7979542968219
1626177996646.12,-15.7970167156478
1626177996649.44,-15.801776743147
1626177996652.77,-15.8019931080333
1626177996656.1,-15.7983870265945
1626177996659.42,-15.8032912973513
1626177996662.75,-15.8050222164419
1626177996666.08,-15.8189416907956
1626177996669.4,-15.7981706617082
1626177996672.73,-15.7709086860309
1626177996676.06,-15.7700432264856
1626177996679.38,-15.7785535786812
1626177996682.71,-15.7878572687933
1626177996686.04,-15.8000458240564
1626177996689.36,-15.7895160662551
1626177996692.69,-15.7882899985659
1626177996696.01,-15.7976658103068
1626177996699.34,-15.7844675522408
1626177996702.67,-15.7922566881486
1626177996705.99,-15.7855493766724
1626177996709.32,-15.7730723348942
1626177996712.65,-15.785044525271
1626177996715.97,-15.7630474284944
1626177996719.3,-15.7538879816399
1626177996722.63,-15.7631916717519
1626177996725.95,-15.7664371450468
1626177996729.28,-15.7672304829634
1626177996732.6,-15.766725631562
1626177996735.93,-15.7675910911073
1626177996739.26,-15.7855493766724
1626177996742.58,-15.7719183888338
1626177996745.91,-15.7704038346295
1626177996749.24,-15.7652831989864
1626177996752.56,-15.7617492391764
1626177996755.89,-15.7504982650874
1626177996759.22,-15.7495606839133
1626177996762.54,-15.7657159287591
1626177996765.87,-15.7314581550906
1626177996769.2,-15.7386703179682
1626177996772.52,-15.731963006492
1626177996775.85,-15.7407618452027
1626177996779.17,-15.7258326680461
1626177996782.5,-15.7187647484261
1626177996785.83,-15.7000852465731
1626177996789.15,-15.6936664216121
1626177996792.48,-15.6749147981304
1626177996795.81,-15.6479413089682
1626177996799.13,-15.6424600651813
1626177996802.46,-15.5989707230295
1626177996805.79,-15.5789209102298
1626177996809.11,-15.5921191682958
1626177996812.44,-15.6048125749603
1626177996815.77,-15.6238526849571
1626177996819.09,-15.6296224152592
1626177996822.42,-15.6476528224531
1626177996825.74,-15.6444073491582
1626177996829.07,-15.6459219033625
1626177996832.4,-15.6573171207091
1626177996835.72,-15.7003737330882
1626177996839.05,-15.7274193438791
1626177996842.38,-15.7398242640286
1626177996845.7,-15.7478297648227
1626177996849.03,-15.745810359217
1626177996852.36,-15.7305926955453
1626177996855.68,-15.7470364269062
1626177996859.01,-15.7553304142154
1626177996862.34,-15.7548255628139
1626177996865.66,-15.7423485210357
1626177996868.99,-15.7372278853927
1626177996872.31,-15.7693941318267
1626177996875.64,-15.7530946437233
1626177996878.97,-15.7698268615993
1626177996882.29,-15.7649225908426
1626177996885.62,-15.7781208489085
1626177996888.95,-15.7592249821693
1626177996892.27,-15.7696826183418
1626177996895.6,-15.7546813195564
1626177996898.93,-15.7616049959189
1626177996902.25,-15.7458824808457
1626177996905.58,-15.7512916030039
1626177996908.91,-15.7450891429292
1626177996912.23,-15.7404012370588
1626177996915.56,-15.7437909536113
1626177996918.88,-15.7453776294443
1626177996922.21,-15.765427442244
1626177996925.54,-15.7670141180771
1626177996928.86,-15.8099264871987
1626177996932.19,-15.9085167537352
1626177996935.52,-15.9701086247097
1626177996938.84,-16.0634340123456
1626177996942.17,-16.0673285802994
1626177996945.5,-16.0213871027693
1626177996948.82,-15.8657486278711
1626177996952.15,-15.5758196801924
1626177996955.47,-15.3439486436783
1626177996958.8,-14.7021382692025
1626177996962.13,-13.9475296673214
1626177996965.45,-13.7224380639122
1626177996968.78,-13.6808238841085
1626177996972.11,-13.8680516324105
1626177996975.43,-14.0999947905534
1626177996978.76,-14.5897727715698
1626177996982.09,-15.0900805103875
1626177996985.41,-15.2942568414517
1626177996988.74,-15.5970955606813
1626177996992.07,-15.6382048890835
1626177996995.39,-15.6040192370438
1626177996998.72,-15.5895949112886
1626177997002.04,-15.5932731143562
1626177997005.37,-15.5924797764396
1626177997008.7,-15.6142605083299
1626177997012.02,-15.6221217658665
1626177997015.35,-15.6239969282147
1626177997018.68,-15.638349132341
1626177997022,-15.6413061191209
1626177997025.33,-15.6353921455612
1626177997028.66,-15.6524128499523
1626177997031.98,-15.6836415152122
1626177997035.31,-15.6726069060095
1626177997038.64,-15.6625819996097
1626177997041.96,-15.6666208108212
1626177997045.29,-15.6651062566169
1626177997048.61,-15.6551534718458
1626177997051.94,-15.6558025665048
1626177997055.27,-15.6426764300676
1626177997058.59,-15.636113361849
1626177997061.92,-15.6411618758633
1626177997065.25,-15.6347430509023
1626177997068.57,-15.6480855522258
1626177997071.9,-15.6254393607902
1626177997075.23,-15.6327236452965
1626177997078.55,-15.6165684004508
1626177997081.88,-15.6152702111328
1626177997085.21,-15.6069041021948
1626177997088.53,-15.6070483454524
1626177997091.86,-15.6098610889746
1626177997095.18,-15.6100774538609
1626177997098.51,-15.5881524787131
1626177997101.84,-15.6095726024595
1626177997105.16,-15.6163520355644
1626177997108.49,-15.5784160588284
1626177997111.82,-15.5676699361408
1626177997115.14,-15.5623329356114
1626177997118.47,-15.5611068679222
1626177997121.8,-15.5525965157266
1626177997125.12,-15.5344218652751
1626177997128.45,-15.5455285961066
1626177997131.77,-15.5223775532696
1626177997135.1,-15.51646357971
1626177997138.43,-15.5119199170971
1626177997141.75,-15.4904276717219
1626177997145.08,-15.4839367251321
1626177997148.41,-15.4633099393022
1626177997151.73,-15.4511213840391
1626177997155.06,-15.4554486817656
1626177997158.39,-15.4469383295701
1626177997161.71,-15.404819298365
1626177997165.04,-15.3934962026472
1626177997168.37,-15.3947943919652
1626177997171.69,-15.383615539505
1626177997175.02,-15.3544062798508
1626177997178.34,-15.3492856442077
1626177997181.67,-15.32793764209
1626177997185,-15.2989447473222
1626177997188.32,-15.2926701656187
1626177997191.65,-15.2659130413429
1626177997194.98,-15.2524262967618
1626177997198.3,-15.2397328900972
1626177997201.63,-15.2240103750241
1626177997204.96,-15.2237940101378
1626177997208.28,-15.2066290624892
1626177997211.61,-15.2049702650273
1626177997214.94,-15.1826125601068
1626177997218.26,-15.1705682481013
1626177997221.59,-15.1727318969645
1626177997224.91,-15.1975417372634
1626177997228.24,-15.2051866299136
1626177997231.57,-15.2200436854415
1626177997234.89,-15.2377856061203
1626177997238.22,-15.2950501793683
1626177997241.55,-15.3068060048587
1626177997244.87,-15.3381067917474
1626177997248.2,-15.385851309997
1626177997251.53,-15.4112381233261
1626177997254.85,-15.410949636811
1626177997258.18,-15.4451352888507
1626177997261.51,-15.4536456410462
1626177997264.83,-15.4839367251321
1626177997268.16,-15.5177617690279
1626177997271.48,-15.5128574982712
1626177997274.81,-15.5384606764866
1626177997278.14,-15.5554092592489
1626177997281.46,-15.5636311249293
1626177997284.79,-15.5814451672369
1626177997288.12,-15.5610347462934
1626177997291.44,-15.5831039646988
1626177997294.77,-15.5731511799277
1626177997298.1,-15.5938500873864
1626177997301.42,-15.5945713036741
1626177997304.75,-15.6048125749603
1626177997308.07,-15.6141883867012
1626177997311.4,-15.6260884554492
1626177997314.73,-15.6304878748045
1626177997318.05,-15.6296945368879
1626177997321.38,-15.6301272666606
1626177997324.71,-15.63193030738
1626177997328.03,-15.6147653597314
1626177997331.36,-15.62132842795
1626177997334.69,-15.625511482419
1626177997338.01,-15.6286848340851
1626177997341.34,-15.6007737637489
1626177997344.67,-15.6228429821542
1626177997347.99,-15.6312090910922
1626177997351.32,-15.6236363200708
1626177997354.64,-15.6241411714722
1626177997357.97,-15.6159914274205
1626177997361.3,-15.6211120630636
1626177997364.62,-15.6166405220795
1626177997367.95,-15.6233478335557
1626177997371.28,-15.6265211852218
1626177997374.6,-15.627747252911
1626177997377.93,-15.6245017796161
1626177997381.26,-15.6148374813601
1626177997384.58,-15.6252951175326
1626177997387.91,-15.6064713724221
1626177997391.24,-15.612313224353
1626177997394.56,-15.6086350212854
1626177997397.89,-15.6164241571932
1626177997401.21,-15.6115920080652
1626177997404.54,-15.6135392920422
1626177997407.87,-15.5952203983331
1626177997411.19,-15.5869985326527
1626177997414.52,-15.5927682629547
1626177997417.85,-15.6022883179531
1626177997421.17,-15.6006295204913
1626177997424.5,-15.6100774538609
1626177997427.83,-15.6030095342409
1626177997431.15,-15.5904603708339
1626177997434.48,-15.5890179382584
1626177997437.81,-15.5844742756455
1626177997441.13,-15.5950761550756
1626177997444.46,-15.5930567494698
1626177997447.78,-15.5870706542815
1626177997451.11,-15.5944991820454
1626177997454.44,-15.5864936812513
1626177997457.76,-15.5641359763308
1626177997461.09,-15.5976004120827
1626177997464.42,-15.5889458166296
1626177997467.74,-15.5970955606813
1626177997471.07,-15.6215447928363
1626177997474.4,-15.5931288710986
1626177997477.72,-15.5992592095446
1626177997481.05,-15.5864936812513
1626177997484.38,-15.599114966287
1626177997487.7,-15.5906046140915
1626177997491.03,-15.5834645728427
1626177997494.35,-15.6001967907187
1626177997497.68,-15.6004852772338
1626177997501.01,-15.5814451672369
1626177997504.33,-15.6003410339762
1626177997507.66,-15.5914700736368
1626177997510.99,-15.5994755744309
1626177997514.31,-15.6113756431789
1626177997517.64,-15.62486238776
1626177997520.97,-15.597816776969
1626177997524.29,-15.5917585601519
1626177997527.62,-15.5993313311733
1626177997530.94,-15.6087071429142
1626177997534.27,-15.5858445865923
1626177997537.6,-15.5936337225001
1626177997540.92,-15.58303184307
1626177997544.25,-15.5859888298498
1626177997547.58,-15.5766851397377
1626177997550.9,-15.5999804258323
1626177997554.23,-15.5778390857982
1626177997557.56,-15.5796421265175
1626177997560.88,-15.5816615321233
1626177997564.21,-15.5770457478816
1626177997567.54,-15.5785603020859
1626177997570.86,-15.5845463972743
1626177997574.19,-15.5970955606813
1626177997577.51,-15.5929846278411
1626177997580.84,-15.5950040334468
1626177997584.17,-15.5952925199619
1626177997587.49,-15.5945713036741
1626177997590.82,-15.5857003433347
1626177997594.15,-15.580146977919
1626177997597.47,-15.5859888298498
1626177997600.8,-15.5998361825748
1626177997604.13,-15.5784160588284
1626177997607.45,-15.5873591407966
1626177997610.78,-15.5875755056829
1626177997614.11,-15.5885852084857
1626177997617.43,-15.5900276410613
1626177997620.76,-15.5661553819365
1626177997624.08,-15.5824548700398
1626177997627.41,-15.575314828791
1626177997630.74,-15.5554092592489
1626177997634.06,-15.5770457478816
1626177997637.39,-15.563414760043
1626177997640.72,-15.5534619752719
1626177997644.04,-15.5704105580342
1626177997647.37,-15.5740887611018
1626177997650.7,-15.5639917330732
1626177997654.02,-15.543797677016
1626177997657.35,-15.5350709599341
1626177997660.68,-15.5572122999683
1626177997664,-15.5647850709897
1626177997667.33,-15.5653620440199
1626177997670.65,-15.5448073798188
1626177997673.98,-15.550216501977
1626177997677.31,-15.5481970963713
1626177997680.63,-15.5562025971654
1626177997683.96,-15.5632705167854
1626177997687.29,-15.5534619752719
1626177997690.61,-15.5831039646988
1626177997693.94,-15.555697745764
1626177997697.27,-15.5463219340231
1626177997700.59,-15.5315370001241
1626177997703.92,-15.5392540144031
1626177997707.24,-15.4873985633133
1626177997710.57,-15.5073041328554
1626177997713.9,-15.4924470773276
1626177997717.22,-15.4850185495637
1626177997720.55,-15.451481992183
1626177997723.88,-15.441817693927
1626177997727.2,-15.4004920006385
1626177997730.53,-15.3924143782156
1626177997733.86,-15.3787112687482
1626177997737.18,-15.3933519593897
1626177997740.51,-15.4042423253348
1626177997743.84,-15.4222006109
1626177997747.16,-15.4237151651043
1626177997750.49,-15.4194599890065
1626177997753.81,-15.4276097330582
1626177997757.14,-15.4524916949858
1626177997760.47,-15.4947549694484
1626177997763.79,-15.5313927568665
1626177997767.12,-15.522882404671
1626177997770.45,-15.5264884861098
1626177997773.77,-15.5095399033475
1626177997777.1,-15.5255509049357
1626177997780.43,-15.5311042703514
1626177997783.75,-15.5318254866392
1626177997787.08,-15.5470431503109
1626177997790.41,-15.5404079604635
1626177997793.73,-15.5310321487227
1626177997797.06,-15.5343497436464
1626177997800.38,-15.5432207039858
1626177997803.71,-15.5476922449699
1626177997807.04,-15.5472595151972
1626177997810.36,-15.552163785954
1626177997813.69,-15.5380279467139
1626177997817.02,-15.5416340281527
1626177997820.34,-15.557933516256
1626177997823.67,-15.5506492317497
1626177997827,-15.5512983264087
1626177997830.32,-15.5284357700867
1626177997833.65,-15.5225217965271
1626177997836.98,-15.5587989758013
1626177997840.3,-15.5254787833069
1626177997843.63,-15.5259115130796
1626177997846.95,-15.5303830540637
1626177997850.28,-15.6060386426495
1626177997853.61,-15.6358969969627
1626177997856.93,-15.7517964544054
1626177997860.26,-15.8389915035953
1626177997863.59,-15.8762062640436
1626177997866.91,-15.7968724723902
1626177997870.24,-15.6498164713164
1626177997873.57,-15.5373067304262
1626177997876.89,-15.1686930857531
1626177997880.22,-14.5151268857869
1626177997883.54,-14.1431235245614
1626177997886.87,-13.5505722225395
1626177997890.2,-13.47513299884
1626177997893.52,-13.5259066254981
1626177997896.85,-13.9067809470631
1626177997900.18,-14.383216426756
1626177997903.5,-14.6256172210714
1626177997906.83,-15.0661361296339
1626177997910.16,-15.3721482005296
1626177997913.48,-15.4100120556369
1626177997916.81,-15.3782064173468
1626177997920.14,-15.3562814421989
1626177997923.46,-15.3537571851918
1626177997926.79,-15.3702009165527
1626177997930.11,-15.385202215338
1626177997933.44,-15.3896016346933
1626177997936.77,-15.4056126362816
1626177997940.09,-15.4139066235908
1626177997943.42,-15.4277539763157
1626177997946.75,-15.4187387727188
1626177997950.07,-15.4364085717688
1626177997953.4,-15.4482365188881
1626177997956.73,-15.4285473142323
1626177997960.05,-15.4260951788539
1626177997963.38,-15.4303503549517
1626177997966.71,-15.4276097330582
1626177997970.03,-15.4152048129087
1626177997973.36,-15.4030162576456
1626177997976.68,-15.4097235691218
1626177997980.01,-15.4152769345375
1626177997983.34,-15.4209745432108
1626177997986.66,-15.3975350138587
1626177997989.99,-15.3945780270789
1626177997993.32,-15.3775573226878
1626177997996.64,-15.3903949726099
1626177997999.97,-15.3775573226878
1626177998003.3,-15.3860676748833
1626177998006.62,-15.3815961338992
1626177998009.95,-15.3727251735598
1626177998013.28,-15.353685063563
1626177998016.6,-15.3544784014795
1626177998019.93,-15.3602481317816
1626177998023.25,-15.3505117118969
1626177998026.58,-15.3447419815948
1626177998029.91,-15.3182012222053
1626177998033.23,-15.3253412634541
1626177998036.56,-15.3134411947061
1626177998039.89,-15.3073829778889
1626177998043.21,-15.3210139657276
1626177998046.54,-15.3024787071322
1626177998049.87,-15.2770197721743
1626177998053.19,-15.2693027578953
1626177998056.52,-15.280337367098
1626177998059.84,-15.2641100006235
1626177998063.17,-15.2575469324049
1626177998066.5,-15.2429783633922
1626177998069.82,-15.2374249979764
1626177998073.15,-15.2222794559335
1626177998076.48,-15.2014363052173
1626177998079.8,-15.1969647642332
1626177998083.13,-15.1808095193874
1626177998086.46,-15.1568651386339
1626177998089.78,-15.1501578271577
1626177998093.11,-15.110490931331
1626177998096.44,-15.1184243104964
1626177998099.76,-15.0996005653859
1626177998103.09,-15.0811374284193
1626177998106.41,-15.0561833448629
1626177998109.74,-15.0450044924026
1626177998113.07,-15.0157952327484
1626177998116.39,-14.9781477425275
1626177998119.72,-14.9844223242309
1626177998123.05,-14.9733155933995
1626177998126.37,-14.9668246468097
1626177998129.7,-14.981825945595
1626177998133.03,-14.9294656431038
1626177998136.35,-14.9226140883701
1626177998139.68,-14.9280232105283
1626177998143.01,-14.933576575944
1626177998146.33,-14.9368941708677
1626177998149.66,-14.9293213998462
1626177998152.98,-14.9609827948788
1626177998156.31,-15.0170213004376
1626177998159.64,-15.00627517775
1626177998162.96,-15.0478893575536
1626177998166.29,-15.0687325082698
1626177998169.62,-15.0994563221283
1626177998172.94,-15.124338284056
1626177998176.27,-15.1695585452984
1626177998179.6,-15.1912671555599
1626177998182.92,-15.2054751164287
1626177998186.25,-15.2227121857062
1626177998189.58,-15.2302128350988
1626177998192.9,-15.2538687293373
1626177998196.23,-15.2825731375901
1626177998199.55,-15.293535625164
1626177998202.88,-15.3225285199319
1626177998206.21,-15.3091860186083
1626177998209.53,-15.3150999921679
1626177998212.86,-15.3058684236846
1626177998216.19,-15.3100514781536
1626177998219.51,-15.3295243179231
1626177998222.84,-15.3413522650423
1626177998226.17,-15.3490692793213
1626177998229.49,-15.3481316981473
1626177998232.82,-15.3270721825447
1626177998236.15,-15.3380346701187
1626177998239.47,-15.3526753607601
1626177998242.8,-15.3385395215201
1626177998246.12,-15.3522426309875
1626177998249.45,-15.3575075098881
1626177998252.78,-15.3541899149644
1626177998256.1,-15.3548390096234
1626177998259.43,-15.3618348076147
1626177998262.76,-15.3623396590161
1626177998266.08,-15.3563535638277
1626177998269.41,-15.3494298874652
1626177998272.74,-15.3493577658364
1626177998276.06,-15.3645033078794
1626177998279.39,-15.3308946288698
1626177998282.71,-15.346617143943
1626177998286.04,-15.3344285886799
1626177998289.37,-15.3212303306139
1626177998292.69,-15.3166145463722
1626177998296.02,-15.3290194665217
1626177998299.35,-15.3169751545161
1626177998302.67,-15.3207254792125
1626177998306,-15.3205091143261
1626177998309.33,-15.3194994115233
1626177998312.65,-15.3044259911091
1626177998315.98,-15.3112054242141
1626177998319.31,-15.3256297499692
1626177998322.63,-15.3222400334168
1626177998325.96,-15.3278655204613
1626177998329.28,-15.3200042629247
1626177998332.61,-15.3178406140614
1626177998335.94,-15.3145230191377
1626177998339.26,-15.314450897509
1626177998342.59,-15.3063732750861
