ts,ecg
1626180089833.31,-11.7826547363585
1626180089836.64,-11.7781831953744
1626180089839.97,-11.7822220065858
1626180089843.29,-11.7856838447671
1626180089846.62,-11.7628212884452
1626180089849.95,-11.7672928294293
1626180089853.27,-11.7238034872774
1626180089856.6,-11.7292126094356
1626180089859.92,-11.723298635876
1626180089863.25,-11.6912045110708
1626180089866.58,-11.6555043048268
1626180089869.9,-11.6573794671749
1626180089873.23,-11.6003312588133
1626180089876.56,-11.6045143132823
1626180089879.88,-11.6183616660072
1626180089883.21,-11.6430272630486
1626180089886.54,-11.6297568833538
1626180089889.86,-11.6385557220645
1626180089893.19,-11.670217117097
1626180089896.51,-11.6724528875891
1626180089899.84,-11.7039700393641
1626180089903.17,-11.7414732863275
1626180089906.49,-11.7434926919332
1626180089909.82,-11.7684467754897
1626180089913.15,-11.7672928294293
1626180089916.47,-11.7639031128768
1626180089919.8,-11.8015506030978
1626180089923.13,-11.8000360488935
1626180089926.45,-11.7954923862806
1626180089929.78,-11.8178500912011
1626180089933.11,-11.8154700774515
1626180089936.43,-11.797944521659
1626180089939.76,-11.803714251961
1626180089943.08,-11.8115033878688
1626180089946.41,-11.8032094005596
1626180089949.74,-11.8006130219237
1626180089953.06,-11.8064548738545
1626180089956.39,-11.8065991171121
1626180089959.72,-11.8131621853307
1626180089963.04,-11.8168403883982
1626180089966.37,-11.8230428484729
1626180089969.7,-11.8011178733251
1626180089973.02,-11.802127576128
1626180089976.35,-11.8044354682488
1626180089979.68,-11.8229707268442
1626180089983,-11.7915256966979
1626180089986.33,-11.7990984677194
1626180089989.65,-11.8453284317647
1626180089992.98,-11.9110312355794
1626180089996.31,-11.9685121737137
1626180089999.63,-12.0802285766874
1626180090002.96,-12.1089329849402
1626180090006.29,-12.0903977263448
1626180090009.61,-11.9619491054951
1626180090012.94,-11.7155094999682
1626180090016.27,-11.4913554777331
1626180090019.59,-10.8822883227215
1626180090022.92,-10.0850558382339
1626180090026.25,-9.76498004972697
1626180090029.57,-9.6177076837668
1626180090032.9,-9.719615545227
1626180090036.22,-9.93085979591129
1626180090039.55,-10.4869896754014
1626180090042.88,-11.0051114565267
1626180090046.2,-11.2519116701974
1626180090049.53,-11.6769244285732
1626180090052.86,-11.7623885586725
1626180090056.18,-11.7082973370907
1626180090059.51,-11.6570909806598
1626180090062.84,-11.6343005459667
1626180090066.16,-11.6398539113824
1626180090069.49,-11.6531242910772
1626180090072.81,-11.6704334819834
1626180090076.14,-11.6861559970565
1626180090079.47,-11.6814680911861
1626180090082.79,-11.6885360108061
1626180090086.12,-11.6857953889126
1626180090089.45,-11.6810353614134
1626180090092.77,-11.7031767014476
1626180090096.1,-11.6996427416376
1626180090099.43,-11.6989215253498
1626180090102.75,-11.6978397009182
1626180090106.08,-11.6953875655398
1626180090109.41,-11.7010130525843
1626180090112.73,-11.6875263080032
1626180090116.06,-11.6766359420581
1626180090119.38,-11.6803141451256
1626180090122.71,-11.6823335507314
1626180090126.04,-11.6855790240263
1626180090129.36,-11.6570909806598
1626180090132.69,-11.6535570208498
1626180090136.02,-11.6467775877449
1626180090139.34,-11.6725971308466
1626180090142.67,-11.667981346605
1626180090146,-11.6468497093737
1626180090149.32,-11.6243477611956
1626180090152.65,-11.6331465999063
1626180090155.98,-11.6306223428991
1626180090159.3,-11.6145392196821
1626180090162.63,-11.6199483418403
1626180090165.95,-11.620381071613
1626180090169.28,-11.5921815147616
1626180090172.61,-11.5815796353316
1626180090175.93,-11.5770359727187
1626180090179.26,-11.5678765258642
1626180090182.59,-11.5652080255995
1626180090185.91,-11.5501346051853
1626180090189.24,-11.5400375771567
1626180090192.57,-11.5484036860947
1626180090195.89,-11.5260459811742
1626180090199.22,-11.5133525745097
1626180090202.55,-11.498784005497
1626180090205.87,-11.4751281112585
1626180090209.2,-11.4452697569453
1626180090212.52,-11.4376248642951
1626180090215.85,-11.43026845816
1626180090219.18,-11.4108677400193
1626180090222.5,-11.3955779547188
1626180090225.83,-11.367522641125
1626180090229.16,-11.3444437199168
1626180090232.48,-11.3329042593127
1626180090235.81,-11.3273508938969
1626180090239.14,-11.2915064443954
1626180090242.46,-11.2705911720504
1626180090245.79,-11.2667687257253
1626180090249.11,-11.2351794523215
1626180090252.44,-11.2241448431188
1626180090255.77,-11.2047441249781
1626180090259.09,-11.170991202711
1626180090262.42,-11.1705584729384
1626180090265.75,-11.1859925014964
1626180090269.07,-11.1792851900202
1626180090272.4,-11.1774100276721
1626180090275.73,-11.1743087976347
1626180090279.05,-11.1978925702444
1626180090282.38,-11.2166441937261
1626180090285.71,-11.2302751815647
1626180090289.03,-11.273620280459
1626180090292.36,-11.3026131752268
1626180090295.68,-11.3458861524923
1626180090299.01,-11.3704796279048
1626180090302.34,-11.4010591985058
1626180090305.66,-11.4495249330431
1626180090308.99,-11.4869560583777
1626180090312.32,-11.491066991218
1626180090315.64,-11.502967059966
1626180090318.97,-11.5416242529898
1626180090322.3,-11.5369363471194
1626180090325.62,-11.5394606041265
1626180090328.95,-11.5768917294612
1626180090332.28,-11.5819402434755
1626180090335.6,-11.6102840435844
1626180090338.93,-11.5967251773745
1626180090342.25,-11.6252132207409
1626180090345.58,-11.6410078574428
1626180090348.91,-11.6276653561193
1626180090352.23,-11.6173519632044
1626180090355.56,-11.614899827826
1626180090358.89,-11.6347332757393
1626180090362.21,-11.6513933719866
1626180090365.54,-11.6423060467608
1626180090368.87,-11.6454072767982
1626180090372.19,-11.6434599928212
1626180090375.52,-11.6340120594516
1626180090378.85,-11.656081277857
1626180090382.17,-11.6586776564929
1626180090385.5,-11.6588940213792
1626180090388.82,-11.6384836004357
1626180090392.15,-11.6118707194174
1626180090395.48,-11.6479315338053
1626180090398.8,-11.6493739663808
1626180090402.13,-11.6362478299436
1626180090405.46,-11.6286029372934
1626180090408.78,-11.6182174227497
1626180090412.11,-11.6323532619897
1626180090415.44,-11.6432436279349
1626180090418.76,-11.6449745470255
1626180090422.09,-11.617784692977
1626180090425.42,-11.6254295856273
1626180090428.74,-11.6195156120677
1626180090432.07,-11.6189386390374
1626180090435.39,-11.6207416797568
1626180090438.72,-11.6264392884301
1626180090442.05,-11.6166307469166
1626180090445.37,-11.6134573952505
1626180090448.7,-11.6111495031297
1626180090452.03,-11.6064615972592
1626180090455.35,-11.6077597865772
1626180090458.68,-11.6117264761599
1626180090462.01,-11.6015573265025
1626180090465.33,-11.5896572577545
1626180090468.66,-11.5921815147616
1626180090471.98,-11.6049470430549
1626180090475.31,-11.5968694206321
1626180090478.64,-11.5954269880565
1626180090481.96,-11.5931912175645
1626180090485.29,-11.6076876649484
1626180090488.62,-11.6172798415756
1626180090491.94,-11.6150440710836
1626180090495.27,-11.6091300975239
1626180090498.6,-11.6185059092648
1626180090501.92,-11.5944172852537
1626180090505.25,-11.6187222741511
1626180090508.58,-11.6149719494548
1626180090511.9,-11.5921093931329
1626180090515.23,-11.5846808653689
1626180090518.55,-11.5907390821861
1626180090521.88,-11.5997542857831
1626180090525.21,-11.59816760995
1626180090528.53,-11.6025670293053
1626180090531.86,-11.5976627585486
1626180090535.19,-11.6091300975239
1626180090538.51,-11.6125919357052
1626180090541.84,-11.6105725300995
1626180090545.17,-11.6134573952505
1626180090548.49,-11.6128083005915
1626180090551.82,-11.6081925163499
1626180090555.15,-11.6216071393022
1626180090558.47,-11.6276653561193
1626180090561.8,-11.6243477611956
1626180090565.12,-11.6200204634691
1626180090568.45,-11.6051634079413
1626180090571.78,-11.6324253836185
1626180090575.1,-11.6072549351758
1626180090578.43,-11.6144670980533
1626180090581.76,-11.6165586252878
1626180090585.08,-11.6147555845685
1626180090588.41,-11.6136737601368
1626180090591.74,-11.6115822329023
1626180090595.06,-11.6159816522576
1626180090598.39,-11.6141786115382
1626180090601.72,-11.6286029372934
1626180090605.04,-11.6381951139206
1626180090608.37,-11.629684761725
1626180090611.69,-11.6063894756305
1626180090615.02,-11.6106446517282
1626180090618.35,-11.6159816522576
1626180090621.67,-11.6340120594516
1626180090625,-11.6284586940359
1626180090628.33,-11.6177125713483
1626180090631.65,-11.6332187215351
1626180090634.98,-11.6111495031297
1626180090638.31,-11.6238429097942
1626180090641.63,-11.6082646379786
1626180090644.96,-11.6143949764246
1626180090648.28,-11.5951385015414
1626180090651.61,-11.6106446517282
1626180090654.94,-11.6172798415756
1626180090658.26,-11.6209580446432
1626180090661.59,-11.6228332069913
1626180090664.92,-11.6250689774834
1626180090668.24,-11.6255738288848
1626180090671.57,-11.6148277061972
1626180090674.9,-11.6192271255526
1626180090678.22,-11.6377623841479
1626180090681.55,-11.6273047479754
1626180090684.88,-11.6063173540017
1626180090688.2,-11.5909554470724
1626180090691.53,-11.6156210441138
1626180090694.85,-11.6178568146058
1626180090698.18,-11.5752329319993
1626180090701.51,-11.5604479981003
1626180090704.83,-11.5635492281376
1626180090708.16,-11.5712662424166
1626180090711.49,-11.5451582127998
1626180090714.81,-11.5168144126909
1626180090718.14,-11.4992167352696
1626180090721.47,-11.4521934333078
1626180090724.79,-11.4367594047498
1626180090728.12,-11.4469285544072
1626180090731.45,-11.4472891625511
1626180090734.77,-11.4614971234199
1626180090738.1,-11.4796717738714
1626180090741.42,-11.502317965307
1626180090744.75,-11.4953942889445
1626180090748.08,-11.5143622773126
1626180090751.4,-11.5541734163968
1626180090754.73,-11.5801372027561
1626180090758.06,-11.6208859230144
1626180090761.38,-11.635166005512
1626180090764.71,-11.6270162614603
1626180090768.04,-11.612664057334
1626180090771.36,-11.6306944645279
1626180090774.69,-11.6308387077855
1626180090778.02,-11.6301174914977
1626180090781.34,-11.6632213191058
1626180090784.67,-11.6574515888037
1626180090787.99,-11.6311993159293
1626180090791.32,-11.6353823703983
1626180090794.65,-11.6349496406257
1626180090797.97,-11.6575237104325
1626180090801.3,-11.6530521694484
1626180090804.63,-11.6627885893331
1626180090807.95,-11.6267277749452
1626180090811.28,-11.6337235729365
1626180090814.61,-11.6433878711924
1626180090817.93,-11.6409357358141
1626180090821.26,-11.6473545607751
1626180090824.58,-11.6455515200557
1626180090827.91,-11.6437484793363
1626180090831.24,-11.6353102487696
1626180090834.56,-11.6360314650573
1626180090837.89,-11.6630770758482
1626180090841.22,-11.7349823397377
1626180090844.54,-11.7623885586725
1626180090847.87,-11.8787928675166
1626180090851.2,-11.9304319537201
1626180090854.52,-11.9248785883044
1626180090857.85,-11.8285962138887
1626180090861.18,-11.6192271255526
1626180090864.5,-11.482051787621
1626180090867.83,-10.9986926315656
1626180090871.15,-10.3270239027767
1626180090874.48,-9.99858200533176
1626180090877.81,-9.68788202856565
1626180090881.13,-9.66422613432719
1626180090884.46,-9.79116020097258
1626180090887.79,-10.2401173401019
1626180090891.11,-10.6773907753695
1626180090894.44,-10.9427262476356
1626180090897.77,-11.4474334058086
1626180090901.09,-11.6409357358141
1626180090904.42,-11.6420175602457
1626180090907.75,-11.5606643629866
1626180090911.07,-11.5319599547338
1626180090914.4,-11.5277047786361
1626180090917.72,-11.5150113719715
1626180090921.05,-11.5333302656806
1626180090924.38,-11.5295078193555
1626180090927.7,-11.5530915919652
1626180090931.03,-11.5702565396138
1626180090934.36,-11.5401096987855
1626180090937.68,-11.5588613222672
1626180090941.01,-11.5462400372315
1626180090944.34,-11.5357102794302
1626180090947.66,-11.5424175909063
1626180090950.99,-11.5507115782155
1626180090954.32,-11.5383066580661
1626180090957.64,-11.5357102794302
1626180090960.97,-11.5417684962474
1626180090964.29,-11.5478988346933
1626180090967.62,-11.5376575634071
1626180090970.95,-11.5419848611337
1626180090974.27,-11.5300126707569
1626180090977.6,-11.5124871149644
1626180090980.93,-11.5159489531456
1626180090984.25,-11.5413357664747
1626180090987.58,-11.5179683587513
1626180090990.91,-11.5102513444723
1626180090994.23,-11.5147950070852
1626180090997.56,-11.4934470049676
1626180091000.89,-11.4925815454223
1626180091004.21,-11.4996494650423
1626180091007.54,-11.4909948695892
1626180091010.86,-11.4915718426194
1626180091014.19,-11.4559437580042
1626180091017.52,-11.4634444073968
1626180091020.84,-11.4586122582689
1626180091024.17,-11.4320714988794
1626180091027.5,-11.432504228652
1626180091030.82,-11.4299078500161
1626180091034.15,-11.4403654861886
1626180091037.48,-11.4180077812681
1626180091040.8,-11.4147623079732
1626180091044.13,-11.4024295094525
1626180091047.45,-11.3779802772975
1626180091050.78,-11.3668014248373
1626180091054.11,-11.3533146802562
1626180091057.43,-11.3278557452984
1626180091060.76,-11.3268460424955
1626180091064.09,-11.3111235274224
1626180091067.41,-11.3011707426513
1626180091070.74,-11.2989349721593
1626180091074.07,-11.2525607648564
1626180091077.39,-11.2148411530067
1626180091080.72,-11.2030132058875
1626180091084.05,-11.1843337040345
1626180091087.37,-11.1684669457039
1626180091090.7,-11.1553408092667
1626180091094.02,-11.1324782529447
1626180091097.35,-11.1084617505624
1626180091100.68,-11.0977156278748
1626180091104,-11.093460451777
1626180091107.33,-11.08091128837
1626180091110.66,-11.0575438806467
1626180091113.98,-11.054226285723
1626180091117.31,-11.0532887045489
1626180091120.64,-11.052928096405
1626180091123.96,-11.0613663269718
1626180091127.29,-11.0776658150751
1626180091130.62,-11.0967059250719
1626180091133.94,-11.1180539271896
1626180091137.27,-11.1507971466538
1626180091140.59,-11.1875791773294
1626180091143.92,-11.241454034025
1626180091147.25,-11.2879003629566
1626180091150.57,-11.2987907289017
1626180091153.9,-11.3299472725329
1626180091157.23,-11.349852842075
1626180091160.55,-11.3520164909382
1626180091163.88,-11.3843991022586
1626180091167.21,-11.4261575253198
1626180091170.53,-11.4433945945972
1626180091173.86,-11.454717690315
1626180091177.19,-11.4660407860328
1626180091180.51,-11.483349976939
1626180091183.84,-11.4752723545161
1626180091187.16,-11.4845039229994
1626180091190.49,-11.5121986284493
1626180091193.82,-11.5102513444723
1626180091197.14,-11.5170307775773
1626180091200.47,-11.5131362096234
1626180091203.8,-11.526767197462
1626180091207.12,-11.5369363471194
1626180091210.45,-11.5356381578014
1626180091213.78,-11.523233237652
1626180091217.1,-11.5282817516663
1626180091220.43,-11.5421291043912
1626180091223.75,-11.5460957939739
1626180091227.08,-11.5305175221583
1626180091230.41,-11.529002967954
1626180091233.73,-11.5418406178761
1626180091237.06,-11.5384509013237
1626180091240.39,-11.5376575634071
1626180091243.71,-11.5375133201496
1626180091247.04,-11.5424897125351
1626180091250.37,-11.5274884137497
1626180091253.69,-11.5248920351138
1626180091257.02,-11.5173192640924
1626180091260.35,-11.5355660361726
1626180091263.67,-11.5162374396607
1626180091267,-11.5220792915916
1626180091270.32,-11.5257574946591
1626180091273.65,-11.52806538678
1626180091276.98,-11.5241708188261
1626180091280.3,-11.5098186146997
1626180091283.63,-11.5168865343197
1626180091286.96,-11.5124871149644
1626180091290.28,-11.5218629267052
1626180091293.61,-11.5295078193555
1626180091296.94,-11.5363593740892
1626180091300.26,-11.5220792915916
1626180091303.59,-11.5093137632982
1626180091306.92,-11.502967059966
1626180091310.24,-11.5172471424636
1626180091313.57,-11.5175356289787
1626180091316.89,-11.5117658986766
1626180091320.22,-11.5028228167084
1626180091323.55,-11.5145065205701
1626180091326.87,-11.5174635073499
1626180091330.2,-11.5096743714421
1626180091333.53,-11.519050183183
1626180091336.85,-11.5140016691687
1626180091340.18,-11.5079434523515
1626180091343.51,-11.5178241154938
1626180091346.83,-11.5085204253817
1626180091350.16,-11.5433551720804
1626180091353.49,-11.5281375084087
1626180091356.81,-11.521285953675
1626180091360.14,-11.5218629267052
1626180091363.46,-11.5186895750391
1626180091366.79,-11.5266950758332
1626180091370.12,-11.5259017379167
1626180091373.44,-11.5350611847712
1626180091376.77,-11.5191944264405
1626180091380.1,-11.5137131826536
1626180091383.42,-11.520636859016
1626180091386.75,-11.5264787109469
1626180091390.08,-11.5363593740892
1626180091393.4,-11.5352775496575
1626180091396.73,-11.5323926845065
1626180091400.05,-11.536719982233
1626180091403.38,-11.5243150620836
1626180091406.71,-11.5290750895828
1626180091410.03,-11.5419848611337
1626180091413.36,-11.5449418479135
1626180091416.69,-11.5413357664747
1626180091420.01,-11.5497018754127
1626180091423.34,-11.5442206316257
1626180091426.67,-11.5432109288229
1626180091429.99,-11.5400375771567
1626180091433.32,-11.556986159919
1626180091436.65,-11.5750886887418
1626180091439.97,-11.5571304031766
1626180091443.3,-11.5507115782155
1626180091446.62,-11.556986159919
1626180091449.95,-11.5414078881035
1626180091453.28,-11.5489806591249
1626180091456.6,-11.5610249711305
1626180091459.93,-11.5789111350669
1626180091463.26,-11.5804978109
1626180091466.58,-11.5664340932887
1626180091469.91,-11.5566255517752
1626180091473.24,-11.5535964433666
1626180091476.56,-11.5644146876829
1626180091479.89,-11.5582122276082
1626180091483.22,-11.5680928907505
1626180091486.54,-11.5751608103705
1626180091489.87,-11.5890081630955
1626180091493.19,-11.5747280805979
1626180091496.52,-11.5858348114294
1626180091499.85,-11.5809305406726
1626180091503.17,-11.5654243904858
1626180091506.5,-11.5648474174556
1626180091509.83,-11.5499903619278
1626180091513.15,-11.558933443896
1626180091516.48,-11.5562649436313
1626180091519.81,-11.5478988346933
1626180091523.13,-11.5517934026472
1626180091526.46,-11.5215023185614
1626180091529.79,-11.5388836310963
1626180091533.11,-11.5222235348491
1626180091536.44,-11.4803929901592
1626180091539.76,-11.439283661757
1626180091543.09,-11.430917552819
1626180091546.42,-11.393919157257
1626180091549.74,-11.4097859155877
1626180091553.07,-11.4214696194493
1626180091556.4,-11.4340187828563
1626180091559.72,-11.4724596109938
1626180091563.05,-11.4655359346313
1626180091566.38,-11.4837105850828
1626180091569.7,-11.4966924782625
1626180091573.03,-11.5036882762537
1626180091576.35,-11.5525146189349
1626180091579.68,-11.596580934117
1626180091583.01,-11.6115822329023
1626180091586.33,-11.6117264761599
1626180091589.66,-11.6230495718777
1626180091592.99,-11.6248526125971
1626180091596.31,-11.6221119907036
1626180091599.64,-11.6224725988475
1626180091602.97,-11.6156931657425
1626180091606.29,-11.6374738976328
1626180091609.62,-11.6335072080502
1626180091612.95,-11.6263671668014
1626180091616.27,-11.6381951139206
1626180091619.6,-11.6472103175176
1626180091622.92,-11.6540618722513
1626180091626.25,-11.6412242223292
1626180091629.58,-11.6517539801304
1626180091632.9,-11.6587497781217
1626180091636.23,-11.6394211816098
1626180091639.56,-11.662500102818
1626180091642.88,-11.6614904000152
1626180091646.21,-11.6563697643721
1626180091649.54,-11.6333629647926
1626180091652.86,-11.6404308844126
1626180091656.19,-11.6535570208498
1626180091659.52,-11.6683419547489
1626180091662.84,-11.6878147945183
1626180091666.17,-11.7887850748044
1626180091669.49,-11.8930008283855
1626180091672.82,-11.9186761282296
1626180091676.15,-11.9763013096215
1626180091679.47,-11.8898274767193
1626180091682.8,-11.7900111424936
1626180091686.13,-11.534484211741
1626180091689.45,-11.3248987585185
1626180091692.78,-10.7111436976366
1626180091696.11,-9.9519914331426
1626180091699.43,-9.65816791751002
1626180091702.76,-9.5605152321476
1626180091706.09,-9.65896125542656
1626180091709.41,-9.90157841462832
1626180091712.74,-10.4091704379523
1626180091716.06,-10.9280134353654
1626180091719.39,-11.1771936627857
1626180091722.72,-11.5919651498753
1626180091726.04,-11.6756262392552
1626180091729.37,-11.6229774502489
1626180091732.7,-11.5802814460136
1626180091736.02,-11.5339072387108
1626180091739.35,-11.5281375084087
1626180091742.68,-11.5447976046559
1626180091746,-11.5419848611337
1626180091749.33,-11.5528752270788
1626180091752.66,-11.5729250398785
1626180091755.98,-11.5828057030208
1626180091759.31,-11.5867002709747
1626180091762.63,-11.5826614597632
1626180091765.96,-11.577252337605
1626180091769.29,-11.5818681218467
1626180091772.61,-11.577901432264
1626180091775.94,-11.5987445829802
1626180091779.27,-11.5975906369198
1626180091782.59,-11.5995379208968
1626180091785.92,-11.5973021504047
1626180091789.25,-11.6046585565398
1626180091792.57,-11.581435392074
1626180091795.9,-11.5768917294612
1626180091799.22,-11.5809305406726
1626180091802.55,-11.5731414047648
1626180091805.88,-11.5925421229055
1626180091809.2,-11.5892966496106
1626180091812.53,-11.5473218616631
1626180091815.86,-11.5609528495017
1626180091819.18,-11.5616740657895
1626180091822.51,-11.5623231604485
1626180091825.84,-11.5475382265494
1626180091829.16,-11.5410472799596
1626180091832.49,-11.5522261324198
1626180091835.82,-11.538018171551
1626180091839.14,-11.537369076892
1626180091842.47,-11.5354939145439
1626180091845.79,-11.5061404116321
1626180091849.12,-11.5028228167084
1626180091852.45,-11.5051307088292
1626180091855.77,-11.4861627204612
1626180091859.1,-11.4829172471663
1626180091862.43,-11.4622183397077
1626180091865.75,-11.4690698944414
1626180091869.08,-11.4532031361107
1626180091872.41,-11.4299799716449
1626180091875.73,-11.4484431086115
1626180091879.06,-11.4328648367959
1626180091882.39,-11.4159883756624
1626180091885.71,-11.3956500763476
1626180091889.04,-11.3834615210845
1626180091892.36,-11.3573534914677
1626180091895.69,-11.3444437199168
1626180091899.02,-11.3314618267371
1626180091902.34,-11.3053537971203
1626180091905.67,-11.2862415654947
1626180091909,-11.2677063068993
1626180091912.32,-11.2544359272046
1626180091915.65,-11.2263806136108
1626180091918.98,-11.2260200054669
1626180091922.3,-11.206691408955
1626180091925.63,-11.1958010430099
1626180091928.96,-11.1953683132372
1626180091932.28,-11.1842615824058
1626180091935.61,-11.1537541334336
1626180091938.93,-11.1498595654797
1626180091942.26,-11.1663032968406
1626180091945.59,-11.1755348653239
1626180091948.91,-11.1666639049845
1626180091952.24,-11.2195290588771
1626180091955.57,-11.2351794523215
1626180091958.89,-11.2493874131903
1626180091962.22,-11.3131429330281
1626180091965.55,-11.3264854343516
1626180091968.87,-11.3722105469955
1626180091972.2,-11.4173586866091
1626180091975.52,-11.4294029986147
1626180091978.85,-11.463083799253
1626180091982.18,-11.5060682900033
1626180091985.5,-11.5201320076146
1626180091988.83,-11.5375133201496
1626180091992.16,-11.5619625523046
1626180091995.48,-11.5781899187791
1626180091998.81,-11.6050912863125
1626180092002.14,-11.5985282180939
1626180092005.46,-11.6098513138117
1626180092008.79,-11.620381071613
1626180092012.12,-11.6349496406257
1626180092015.44,-11.6279538426344
1626180092018.77,-11.6464891012298
1626180092022.09,-11.6723807659603
1626180092025.42,-11.6653128463403
1626180092028.75,-11.6795208072091
1626180092032.07,-11.6923584571312
1626180092035.4,-11.6975512144031
1626180092038.73,-11.6830547670191
1626180092042.05,-11.6929354301614
1626180092045.38,-11.6958924169412
1626180092048.71,-11.6769244285732
1626180092052.03,-11.6858675105414
1626180092055.36,-11.6858675105414
1626180092058.69,-11.69596453857
1626180092062.01,-11.7020227553872
1626180092065.34,-11.7217119600429
1626180092068.66,-11.69949849838
1626180092071.99,-11.7015900256145
1626180092075.32,-11.6982724306908
1626180092078.64,-11.694666349252
1626180092081.97,-11.6935845248204
1626180092085.3,-11.686949334973
1626180092088.62,-11.6955318087973
1626180092091.95,-11.6992100118649
1626180092095.28,-11.7081530938331
1626180092098.6,-11.7173125406876
1626180092101.93,-11.711398567128
1626180092105.26,-11.6969742413729
1626180092108.58,-11.7002197146678
1626180092111.91,-11.7057730800835
1626180092115.23,-11.7248853117091
1626180092118.56,-11.7100282561813
1626180092121.89,-11.6989215253498
1626180092125.21,-11.6997148632663
1626180092128.54,-11.7042585258792
1626180092131.87,-11.7000033497814
1626180092135.19,-11.7079367289468
1626180092138.52,-11.7028882149325
1626180092141.85,-11.7072876342878
1626180092145.17,-11.7106052292115
1626180092148.5,-11.6966857548578
1626180092151.82,-11.7122640266733
1626180092155.15,-11.704979742167
1626180092158.48,-11.7000033497814
1626180092161.8,-11.7209907437552
1626180092165.13,-11.7166634460286
1626180092168.46,-11.6987772820922
1626180092171.78,-11.7198367976948
1626180092175.11,-11.726183501027
1626180092178.44,-11.7152210134531
1626180092181.76,-11.7207743788689
1626180092185.09,-11.7248853117091
1626180092188.42,-11.7279144201177
1626180092191.74,-11.7526521387878
1626180092195.07,-11.75546488231
1626180092198.39,-11.7412569214412
1626180092201.72,-11.742915718903
1626180092205.05,-11.7486854492051
1626180092208.37,-11.7373623534873
1626180092211.7,-11.7378672048887
1626180092215.03,-11.763181896589
1626180092218.35,-11.7580612609459
1626180092221.68,-11.7635425047329
1626180092225.01,-11.7668600996566
1626180092228.33,-11.7455842191677
1626180092231.66,-11.7524357739014
1626180092234.99,-11.7734231678752
1626180092238.31,-11.7573400446582
1626180092241.64,-11.7672928294293
1626180092244.96,-11.7832317093887
1626180092248.29,-11.7706104243529
1626180092251.62,-11.7672928294293
1626180092254.94,-11.7703219378378
1626180092258.27,-11.7730625597313
1626180092261.6,-11.7763080330262
1626180092264.92,-11.777678343973
1626180092268.25,-11.7949154132504
1626180092271.58,-11.7734231678752
1626180092274.9,-11.7954923862806
1626180092278.23,-11.7755868167385
1626180092281.56,-11.7826547363585
1626180092284.88,-11.7972233053712
1626180092288.21,-11.7885687099181
1626180092291.53,-11.7998196840071
1626180092294.86,-11.8093397390055
1626180092298.19,-11.7961414809396
1626180092301.51,-11.8019833328704
1626180092304.84,-11.7941220753338
1626180092308.17,-11.8122246041566
1626180092311.49,-11.8115033878688
1626180092314.82,-11.8071760901423
1626180092318.15,-11.8373950525993
1626180092321.47,-11.8399193096065
1626180092324.8,-11.8218167807837
1626180092328.12,-11.8252064973362
1626180092331.45,-11.8203022265795
1626180092334.78,-11.8311204708958
1626180092338.1,-11.8218167807837
1626180092341.43,-11.8203743482082
1626180092344.76,-11.8372508093418
1626180092348.08,-11.8243410377909
1626180092351.41,-11.8358083767663
1626180092354.74,-11.8359526200238
1626180092358.06,-11.8232592133593
1626180092361.39,-11.8053730494229
1626180092364.72,-11.8040027384761
1626180092368.04,-11.8212398077535
1626180092371.37,-11.8161912937392
1626180092374.69,-11.8180664560874
1626180092378.02,-11.8044354682488
1626180092381.35,-11.7980887649165
1626180092384.67,-11.7900832641224
1626180092388,-11.7411126781836
1626180092391.33,-11.7534454767043
1626180092394.65,-11.7261113793983
1626180092397.98,-11.671515306415
1626180092401.31,-11.6614182783864
1626180092404.63,-11.668630441264
1626180092407.96,-11.7189713381495
1626180092411.29,-11.7165192027711
1626180092414.61,-11.7478199896598
1626180092417.94,-11.7660667617401
1626180092421.26,-11.7514260710986
1626180092424.59,-11.7777504656017
1626180092427.92,-11.8190761588903
1626180092431.24,-11.8412174989244
1626180092434.57,-11.8758358807368
1626180092437.9,-11.8986984370587
1626180092441.22,-11.8962463016804
1626180092444.55,-11.8964626665667
1626180092447.88,-11.9019439103537
1626180092451.2,-11.9048287755047
1626180092454.53,-11.9062712080802
1626180092457.86,-11.916945209139
1626180092461.18,-11.9276192101978
1626180092464.51,-11.9373556300826
1626180092467.83,-11.9442071848163
1626180092471.16,-11.9350477379617
1626180092474.49,-11.9275470885691
1626180092477.81,-11.9309368051215
1626180092481.14,-11.9362738056509
1626180092484.47,-11.9264652641374
1626180092487.79,-11.9435580901573
1626180092491.12,-11.9589199970865
1626180092494.45,-11.9418271710667
1626180092497.77,-11.9593527268592
1626180092501.1,-11.9351198595905
1626180092504.43,-11.9481738743989
1626180092507.75,-11.9590642403441
1626180092511.08,-11.9507702530349
1626180092514.4,-11.9667812546231
1626180092517.73,-11.9838019590142
1626180092521.06,-12.0768388601349
1626180092524.38,-12.1879782900784
1626180092527.71,-12.2365882678733
1626180092531.04,-12.2943576925227
1626180092534.36,-12.2107687247716
1626180092537.69,-12.1382864878519
1626180092541.02,-11.8916305174387
1626180092544.34,-11.3615365459366
1626180092547.67,-11.029127958909
1626180092550.99,-10.2713460053618
1626180092554.32,-9.77940437548213
1626180092557.65,-9.77832255105049
1626180092560.97,-9.90900694239222
1626180092564.3,-10.4027516129913
1626180092567.63,-10.6887138710873
1626180092570.95,-11.2310685194812
1626180092574.28,-11.6795208072091
1626180092577.61,-11.8478526887718
1626180092580.93,-11.9470920499673
1626180092584.26,-11.8945875042185
1626180092587.59,-11.8676861366851
1626180092590.91,-11.8444629722193
1626180092594.24,-11.8710758532376
1626180092597.56,-11.8806680298648
1626180092600.89,-11.8717249478966
1626180092604.22,-11.9023045184975
1626180092607.54,-11.9045402889896
1626180092610.87,-11.9088675867161
1626180092614.2,-11.9126900330412
1626180092617.52,-11.9059105999363
1626180092620.85,-11.9163682361088
1626180092624.18,-11.9180270335707
1626180092627.5,-11.9243016152741
1626180092630.83,-11.930143467205
1626180092634.16,-11.9282683048568
1626180092637.48,-11.9292058860309
1626180092640.81,-11.928845277887
1626180092644.13,-11.9225706961835
1626180092647.46,-11.933677427015
1626180092650.79,-11.9230034259562
1626180092654.11,-11.9245179801605
1626180092657.44,-11.9168009658815
1626180092660.77,-11.908579100201
1626180092664.09,-11.8997802614904
1626180092667.42,-11.896029936794
1626180092670.75,-11.9030978564141
1626180092674.07,-11.8998523831192
1626180092677.4,-11.8986984370587
1626180092680.73,-11.8991311668314
1626180092684.05,-11.8943711393322
1626180092687.38,-11.8972560044832
1626180092690.7,-11.8762686105095
1626180092694.03,-11.8723740425556
1626180092697.36,-11.8666043122535
1626180092700.68,-11.8599691224061
1626180092704.01,-11.8813892461526
1626180092707.34,-11.8567236491112
1626180092710.66,-11.8291731869189
1626180092713.99,-11.812729455558
1626180092717.32,-11.8139555232472
1626180092720.64,-11.8054451710516
1626180092723.97,-11.8103494418084
1626180092727.29,-11.8068154819984
1626180092730.62,-11.7878474936304
1626180092733.95,-11.7837365607901
1626180092737.27,-11.7668600996566
1626180092740.6,-11.7566909499992
1626180092743.93,-11.7463775570843
1626180092747.25,-11.725245919853
1626180092750.58,-11.6984166739484
1626180092753.91,-11.7054124719396
1626180092757.23,-11.666034062628
1626180092760.56,-11.6497345745247
1626180092763.89,-11.6226889637338
1626180092767.21,-11.5890802847243
1626180092770.54,-11.5649195390844
1626180092773.86,-11.5616019441607
1626180092777.19,-11.5575631329492
1626180092780.52,-11.5419848611337
1626180092783.84,-11.5273441704922
1626180092787.17,-11.5080155739803
1626180092790.5,-11.4914275993618
1626180092793.82,-11.4936633698539
1626180092797.15,-11.5021016004207
1626180092800.48,-11.5110446823889
1626180092803.8,-11.517102899206
1626180092807.13,-11.5437157802243
1626180092810.46,-11.5879263386639
1626180092813.78,-11.5879263386639
1626180092817.11,-11.6379787490343
1626180092820.43,-11.6766359420581
1626180092823.76,-11.7086579452345
1626180092827.09,-11.7496230303792
1626180092830.41,-11.8006130219237
1626180092833.74,-11.8377556607432
1626180092837.07,-11.8510981620667
1626180092840.39,-11.868695839488
1626180092843.72,-11.8882408008863
1626180092847.05,-11.900862085922
1626180092850.37,-11.9263210208799
1626180092853.7,-11.9468035634522
1626180092857.03,-11.9656273085627
1626180092860.35,-11.9914468516644
1626180092863.68,-12.0037075285563
1626180092867,-11.976445552879
1626180092870.33,-12.0001014471175
1626180092873.66,-12.0094772588584
1626180092876.98,-11.9884177432558
1626180092880.31,-12.022459152038
1626180092883.64,-12.0339986126421
1626180092886.96,-12.0231803683258
1626180092890.29,-12.0461871679052
1626180092893.62,-12.0413550187773
1626180092896.94,-12.0466920193067
1626180092900.27,-12.0513078035483
1626180092903.59,-12.0725115624084
1626180092906.92,-12.060106642259
1626180092910.25,-12.0471247490793
1626180092913.57,-12.0587363313122
1626180092916.9,-12.046259289534
1626180092920.23,-12.0774158331651
1626180092923.55,-12.0551302498734
1626180092926.88,-12.0500817358591
1626180092930.21,-12.0601787638877
1626180092933.53,-12.0560678310475
1626180092936.86,-12.0644339399855
1626180092940.19,-12.0542647903281
1626180092943.51,-12.0637848453265
1626180092946.84,-12.0580872366532
1626180092950.16,-12.061693318092
1626180092953.49,-12.065876372561
1626180092956.82,-12.0583036015396
1626180092960.14,-12.0479180869959
1626180092963.47,-12.0451774651024
1626180092966.8,-12.039191369914
1626180092970.12,-12.0471247490793
1626180092973.45,-12.0531108442677
1626180092976.78,-12.053976303813
1626180092980.1,-12.0655157644171
1626180092983.43,-12.0440956406707
1626180092986.76,-12.0611163450618
1626180092990.08,-12.0553466147598
1626180092993.41,-12.0354410452176
1626180092996.73,-12.049793249344
1626180093000.06,-12.0469805058218
1626180093003.39,-12.056861168964
1626180093006.71,-12.0447447353297
1626180093010.04,-12.0505865872606
1626180093013.37,-12.0622702911222
1626180093016.69,-12.0611163450618
1626180093020.02,-12.0574381419943
1626180093023.35,-12.0563563175626
1626180093026.67,-12.0484950600261
1626180093030,-12.053976303813
1626180093033.33,-12.0590969394561
1626180093036.65,-12.0584478447971
1626180093039.98,-12.0667418321063
1626180093043.3,-12.067823656538
1626180093046.63,-12.0665975888488
1626180093049.96,-12.0716461028631
1626180093053.28,-12.0973214027073
1626180093056.61,-12.0797958469148
1626180093059.94,-12.087440739565
1626180093063.26,-12.0855655772168
1626180093066.59,-12.0903977263448
1626180093069.92,-12.0872243746787
1626180093073.24,-12.0809497929752
1626180093076.57,-12.1052547818726
1626180093079.9,-12.0998456597144
1626180093083.22,-12.0978262541087
1626180093086.55,-12.1069857009632
1626180093089.87,-12.1058317549028
1626180093093.2,-12.1074184307359
1626180093096.53,-12.1075626739934
1626180093099.85,-12.1002062678583
1626180093103.18,-12.102874768123
1626180093106.51,-12.1045335655848
1626180093109.83,-12.1116014852049
1626180093113.16,-12.1258094460737
1626180093116.49,-12.1291991626262
1626180093119.81,-12.123790040468
1626180093123.14,-12.1240064053543
1626180093126.46,-12.123790040468
1626180093129.79,-12.1223476078925
1626180093133.12,-12.1194627427414
1626180093136.44,-12.1101590526294
1626180093139.77,-12.1178039452796
1626180093143.1,-12.1192463778551
1626180093146.42,-12.1247276216421
1626180093149.75,-12.1412434746317
1626180093153.08,-12.138574974367
1626180093156.4,-12.1381422445944
1626180093159.73,-12.1364113255037
1626180093163.06,-12.1341034333829
1626180093166.38,-12.1256652028162
1626180093169.71,-12.1376373931929
1626180093173.03,-12.1310743249743
1626180093176.36,-12.1450659209568
1626180093179.69,-12.148239272623
1626180093183.01,-12.1519895973193
1626180093186.34,-12.1470132049338
1626180093189.67,-12.1527829352359
1626180093192.99,-12.1378537580793
1626180093196.32,-12.1504029214863
1626180093199.65,-12.1492489754258
1626180093202.97,-12.1514847459179
1626180093206.3,-12.1513405026603
1626180093209.63,-12.1494653403122
1626180093212.95,-12.161726017204
1626180093216.28,-12.1586247871667
1626180093219.6,-12.1661254365594
1626180093222.93,-12.1603557062573
1626180093226.26,-12.1495374619409
1626180093229.58,-12.1520617189481
1626180093232.91,-12.15725447622
1626180093236.24,-12.1567496248185
1626180093239.56,-12.1483113942518
1626180093242.89,-12.1428301504648
1626180093246.22,-12.1563168950459
1626180093249.54,-12.1310022033456
1626180093252.87,-12.1319397845196
1626180093256.2,-12.1285500679672
1626180093259.52,-12.106408727933
1626180093262.85,-12.095806848503
1626180093266.17,-12.0911189426325
1626180093269.5,-12.06299150741
1626180093272.83,-12.0442398839283
1626180093276.15,-12.0099821102598
1626180093279.48,-11.9577660510261
1626180093282.81,-12.0000293254887
1626180093286.13,-11.9879850134832
1626180093289.46,-12.035657410104
1626180093292.79,-12.0404174376032
1626180093296.11,-12.0457544381326
1626180093299.44,-12.0562120743051
1626180093302.76,-12.0862146718758
1626180093306.09,-12.1116736068336
1626180093309.42,-12.1535041515236
1626180093312.74,-12.1747800320125
1626180093316.07,-12.1972819801905
1626180093319.4,-12.192954682464
1626180093322.72,-12.2133651034075
1626180093326.05,-12.2008880616293
1626180093329.38,-12.1804776406858
1626180093332.7,-12.1966328855315
1626180093336.03,-12.1879061684497
1626180093339.36,-12.2019698860609
1626180093342.68,-12.2304579294274
1626180093346.01,-12.2347852271539
1626180093349.33,-12.2111293329155
1626180093352.66,-12.2138699548089
1626180093355.99,-12.2210821176865
1626180093359.31,-12.2313955106015
1626180093362.64,-12.2375979706762
1626180093365.97,-12.2409155655999
1626180093369.29,-12.235722808328
1626180093372.62,-12.2270682128749
1626180093375.95,-12.2341361324949
1626180093379.27,-12.2396173762819
1626180093382.6,-12.2327658215482
1626180093385.93,-12.2332706729496
1626180093389.25,-12.2488489447652
1626180093392.58,-12.264355094952
1626180093395.9,-12.288155232448
1626180093399.23,-12.3628732398597
1626180093402.56,-12.4715605344248
1626180093405.88,-12.515915336122
1626180093409.21,-12.5669774492952
1626180093412.54,-12.4885091171872
1626180093415.86,-12.4249699622357
1626180093419.19,-12.1932431689791
1626180093422.52,-11.6998591065239
1626180093425.84,-11.3626904919971
1626180093429.17,-10.5850750905365
1626180093432.5,-10.086642514067
1626180093435.82,-10.0965952988381
1626180093439.15,-10.191507362307
1626180093442.47,-10.6456572587082
1626180093445.8,-10.9139497177541
1626180093449.13,-11.4297636067585
1626180093452.45,-11.9016554238385
1626180093455.78,-12.0818152525205
1626180093459.11,-12.2165384550736
1626180093462.43,-12.1645387607263
1626180093465.76,-12.1400174069425
1626180093469.09,-12.1107360256596
1626180093472.41,-12.1199675941429
1626180093475.74,-12.1268191488766
1626180093479.06,-12.1563890166746
1626180093482.39,-12.1767994376182
1626180093485.72,-12.1716788019751
1626180093489.04,-12.1877619251921
1626180093492.37,-12.1853819114425
1626180093495.7,-12.1915122498885
1626180093499.02,-12.1735539643233
1626180093502.35,-12.1556678003869
1626180093505.68,-12.18199219489
1626180093509,-12.1942528717819
1626180093512.33,-12.1876176819346
1626180093515.66,-12.1899976956842
1626180093518.98,-12.1940365068956
1626180093522.31,-12.1845164518972
1626180093525.63,-12.1760060997017
1626180093528.96,-12.1869685872756
1626180093532.29,-12.1705969775435
1626180093535.61,-12.1771600457621
1626180093538.94,-12.168505450309
1626180093542.27,-12.173337599437
1626180093545.59,-12.1774485322772
1626180093548.92,-12.1592738818257
1626180093552.25,-12.1557399220157
1626180093555.57,-12.1650436121277
1626180093558.9,-12.1417483260332
1626180093562.23,-12.1293434058837
1626180093565.55,-12.139224069026
1626180093568.88,-12.1388634608821
1626180093572.2,-12.1579035708789
1626180093575.53,-12.120905175317
1626180093578.86,-12.1022977950928
1626180093582.18,-12.1048220520999
1626180093585.51,-12.1149190801286
1626180093588.84,-12.0952298754728
1626180093592.16,-12.098691713654
1626180093595.49,-12.0872243746787
1626180093598.82,-12.0706364000602
1626180093602.14,-12.0728000489235
1626180093605.47,-12.0675351700229
1626180093608.8,-12.0455380732463
1626180093612.12,-12.038542275255
1626180093615.45,-12.0078905830253
1626180093618.77,-12.00702512348
1626180093622.1,-11.9884898648846
1626180093625.43,-11.9620212271239
1626180093628.75,-11.9475969013687
1626180093632.08,-11.9384374545142
1626180093635.41,-11.9118245734959
1626180093638.73,-11.8927123418704
1626180093642.06,-11.8692006908894
1626180093645.39,-11.8437417559316
1626180093648.71,-11.805661535938
1626180093652.04,-11.8087627659753
1626180093655.36,-11.8060221440818
1626180093658.69,-11.7833759526463
1626180093662.02,-11.7723413434436
1626180093665.34,-11.7409684349261
1626180093668.67,-11.745512097539
1626180093672,-11.737145988601
1626180093675.32,-11.7341168801924
1626180093678.65,-11.7327465692456
1626180093681.98,-11.7320974745867
1626180093685.3,-11.7641915993919
1626180093688.63,-11.791165088554
1626180093691.96,-11.8086185227178
1626180093695.28,-11.8632145957011
1626180093698.61,-11.9034584645579
1626180093701.93,-11.9155748981923
1626180093705.26,-11.9522848072392
1626180093708.59,-12.0137324349561
1626180093711.91,-12.0323398151803
1626180093715.24,-12.0450332218448
1626180093718.57,-12.0813825227478
1626180093721.89,-12.0887389288829
1626180093725.22,-12.1144142287271
1626180093728.55,-12.1140536205833
1626180093731.87,-12.1364834471325
1626180093735.2,-12.1594181250832
1626180093738.53,-12.17845823508
1626180093741.85,-12.1814152218598
1626180093745.18,-12.1969213720466
1626180093748.5,-12.1853819114425
1626180093751.83,-12.1848049384123
1626180093755.16,-12.2039892916667
1626180093758.48,-12.2097590219687
1626180093761.81,-12.2127881303773
1626180093765.14,-12.2215148474592
1626180093768.46,-12.2395452546531
1626180093771.79,-12.2281500373066
1626180093775.12,-12.2329100648058
1626180093778.44,-12.2396894979107
1626180093781.77,-12.2440167956372
1626180093785.1,-12.2586574862787
1626180093788.42,-12.2565659590442
1626180093791.75,-12.2396894979107
1626180093795.07,-12.2548350399536
1626180093798.4,-12.2503634989695
1626180093801.73,-12.2423579981754
1626180093805.05,-12.2431513360919
1626180093808.38,-12.2469016607883
1626180093811.71,-12.2474786338185
1626180093815.03,-12.2497865259393
1626180093818.36,-12.2529598776054
1626180093821.69,-12.2478392419623
1626180093825.01,-12.2549792832111
1626180093828.34,-12.2573592969607
1626180093831.67,-12.239905862797
1626180093834.99,-12.2471180256746
1626180093838.32,-12.2368046327596
1626180093841.64,-12.2358670515856
1626180093844.97,-12.2381749437064
1626180093848.3,-12.2342803757525
1626180093851.62,-12.2454592282127
1626180093854.95,-12.2662302573002
1626180093858.28,-12.2611096216571
1626180093861.6,-12.2231015232922
1626180093864.93,-12.2198560499973
1626180093868.26,-12.2036286835228
1626180093871.58,-12.2353622001841
1626180093874.91,-12.2353622001841
1626180093878.23,-12.2371652409035
1626180093881.56,-12.2449543768113
1626180093884.89,-12.228005794049
1626180093888.21,-12.2333427945784
1626180093891.54,-12.2252651721555
1626180093894.87,-12.2341361324949
1626180093898.19,-12.2342803757525
1626180093901.52,-12.2448822551825
1626180093904.85,-12.2276451859051
1626180093908.17,-12.2215148474592
1626180093911.5,-12.2304579294274
1626180093914.83,-12.2230294016635
1626180093918.15,-12.2194233202247
1626180093921.48,-12.2277173075339
1626180093924.8,-12.2458198363566
1626180093928.13,-12.2607490135132
1626180093931.46,-12.2549071615824
1626180093934.78,-12.249570161053
1626180093938.11,-12.2368767543884
1626180093941.44,-12.2288712535943
1626180093944.76,-12.2421416332891
1626180093948.09,-12.2453149849552
1626180093951.42,-12.2487047015077
1626180093954.74,-12.2549071615824
1626180093958.07,-12.2503634989695
1626180093961.4,-12.2557004994989
1626180093964.72,-12.2465410526444
1626180093968.05,-12.2504356205983
1626180093971.37,-12.2606047702557
1626180093974.7,-12.2545465534385
1626180093978.03,-12.2474065121897
1626180093981.35,-12.2670957168455
1626180093984.68,-12.2549792832111
1626180093988.01,-12.2510125936285
1626180093991.33,-12.2590180944226
1626180093994.66,-12.263706000293
1626180093997.99,-12.2703411901404
1626180094001.31,-12.2600277972255
1626180094004.64,-12.2665187438153
1626180094007.97,-12.2569986888169
1626180094011.29,-12.27272120389
1626180094014.62,-12.2748848527533
1626180094017.94,-12.2594508241952
1626180094021.27,-12.2655090410124
1626180094024.6,-12.2609653783995
1626180094027.92,-12.2667351087016
1626180094031.25,-12.2831067184337
1626180094034.58,-12.2829624751762
1626180094037.9,-12.2626241758614
1626180094041.23,-12.2628405407477
1626180094044.56,-12.2658696491563
1626180094047.88,-12.2882273540768
1626180094051.21,-12.2816642858582
1626180094054.53,-12.2665187438153
1626180094057.86,-12.2663023789289
1626180094061.19,-12.2694036089663
1626180094064.51,-12.2815200426006
1626180094067.84,-12.2805824614266
1626180094071.17,-12.2858473403272
1626180094074.49,-12.2835394482064
1626180094077.82,-12.2920498004019
1626180094081.15,-12.2763994069576
1626180094084.47,-12.2841885428653
1626180094087.8,-12.2611096216571
1626180094091.13,-12.2828903535474
1626180094094.45,-12.2788515423359
1626180094097.78,-12.2855588538121
1626180094101.1,-12.2802939749114
1626180094104.43,-12.3005601525974
1626180094107.76,-12.2912564624854
1626180094111.08,-12.2763994069576
1626180094114.41,-12.2736587850641
1626180094117.74,-12.2732260552914
1626180094121.06,-12.2675284466181
1626180094124.39,-12.2679611763908
1626180094127.72,-12.2730818120339
1626180094131.04,-12.2455313498415
1626180094134.37,-12.2365882678733
1626180094137.7,-12.2492095529091
1626180094141.02,-12.2004553318566
1626180094144.35,-12.1879061684497
1626180094147.67,-12.1841558437533
1626180094151,-12.1399452853138
1626180094154.33,-12.1029468897518
1626180094157.65,-12.102874768123
1626180094160.98,-12.1235015539529
1626180094164.31,-12.1433350018662
1626180094167.63,-12.1502586782287
1626180094170.96,-12.1817758300037
1626180094174.29,-12.1934595338654
1626180094177.61,-12.1891322361388
1626180094180.94,-12.2284385238217
1626180094184.27,-12.2499307691968
1626180094187.59,-12.2816642858582
1626180094190.92,-12.2921219220307
1626180094194.24,-12.3039498691499
1626180094197.57,-12.3052480584679
1626180094200.9,-12.3128929511181
1626180094204.22,-12.3199608707381
1626180094207.55,-12.3124602213455
1626180094210.88,-12.3091426264218
1626180094214.2,-12.3143353836936
1626180094217.53,-12.3196002625943
1626180094220.86,-12.3394337105076
1626180094224.18,-12.3461410219837
1626180094227.51,-12.3201772356245
1626180094230.83,-12.3375585481594
1626180094234.16,-12.3371979400155
1626180094237.49,-12.329985777138
1626180094240.81,-12.3516222657707
1626180094244.14,-12.3545071309217
1626180094247.47,-12.3589786719058
1626180094250.79,-12.3391452239925
1626180094254.12,-12.3331591288041
1626180094257.45,-12.3455640489535
1626180094260.77,-12.343472521719
1626180094264.1,-12.3348900478947
1626180094267.43,-12.3441937380068
1626180094270.75,-12.346717995014
1626180094274.08,-12.3990061758764
1626180094277.4,-12.5004091859352
1626180094280.73,-12.5507500828207
1626180094284.06,-12.634266928943
1626180094287.38,-12.6220783736799
1626180094290.71,-12.5606307459629
1626180094294.04,-12.4067953117842
1626180094297.36,-12.1287664328535
1626180094300.69,-11.8647291499053
1626180094304.02,-11.2703748071641
1626180094307.34,-10.6289971624609
1626180094310.67,-10.4248929530255
1626180094314,-10.407655883748
1626180094317.32,-10.6282038245444
1626180094320.65,-10.8598584961722
1626180094323.97,-11.2822027542833
1626180094327.3,-11.7840250473052
1626180094330.63,-12.0392634915428
1626180094333.95,-12.3189511679353
1626180094337.28,-12.3482325492182
1626180094340.61,-12.328038493161
1626180094343.93,-12.242790727948
1626180094347.26,-12.2502913773407
1626180094350.59,-12.2356506866992
1626180094353.91,-12.2711345280569
1626180094357.24,-12.2438004307509
1626180094360.57,-12.2557004994989
1626180094363.89,-12.2391846465092
1626180094367.22,-12.2752454608971
1626180094370.54,-12.2840442996078
1626180094373.87,-12.2719999876022
1626180094377.2,-12.2858473403272
1626180094380.52,-12.2670957168455
1626180094383.85,-12.2470459040458
1626180094387.18,-12.2549071615824
1626180094390.5,-12.2497865259393
1626180094393.83,-12.2533926073781
1626180094397.16,-12.260821135142
1626180094400.48,-12.2484883366213
1626180094403.81,-12.2520944180601
1626180094407.14,-12.2493537961666
1626180094410.46,-12.2293761049957
1626180094413.79,-12.2387519167366
1626180094417.11,-12.2375258490474
1626180094420.44,-12.2411319304862
1626180094423.77,-12.2232457665498
1626180094427.09,-12.2276451859051
1626180094430.42,-12.2198560499973
1626180094433.75,-12.2102638733702
1626180094437.07,-12.2093984138248
1626180094440.4,-12.2084608326508
1626180094443.73,-12.208388711022
1626180094447.05,-12.2079559812493
1626180094450.38,-12.1968492504179
1626180094453.7,-12.1778091404211
1626180094457.03,-12.1782418701937
1626180094460.36,-12.1786024783376
1626180094463.68,-12.158192057394
1626180094467.01,-12.1599950981134
1626180094470.34,-12.1620866253479
1626180094473.66,-12.1638175444385
1626180094476.99,-12.1529993001222
1626180094480.32,-12.1493210970546
1626180094483.64,-12.1235736755817
1626180094486.97,-12.1110245121747
1626180094490.3,-12.0931383482383
1626180094493.62,-12.0873686179362
1626180094496.95,-12.0643618183567
1626180094500.27,-12.0542647903281
1626180094503.6,-12.0389750050277
1626180094506.93,-12.0206561113186
1626180094510.25,-11.993826865414
1626180094513.58,-11.9644012408735
1626180094516.91,-11.9544484561024
1626180094520.23,-11.9337495486438
1626180094523.56,-11.8848510843338
1626180094526.89,-11.86386369036
1626180094530.21,-11.8559303111947
1626180094533.54,-11.8392702149475
1626180094536.87,-11.8395587014626
1626180094540.19,-11.8183549426025
1626180094543.52,-11.8033536438171
1626180094546.84,-11.7882081017742
1626180094550.17,-11.7681582889746
1626180094553.5,-11.7864050610548
1626180094556.82,-11.8020554544992
1626180094560.15,-11.8109264148386
1626180094563.48,-11.8326350251001
1626180094566.8,-11.8375392958569
1626180094570.13,-11.8784322593727
1626180094573.46,-11.9364180489085
1626180094576.78,-11.9535108749283
1626180094580.11,-11.9856771213623
1626180094583.44,-12.0438071541556
1626180094586.76,-12.0576545068806
1626180094590.09,-12.1078511605085
1626180094593.41,-12.1198233508853
1626180094596.74,-12.1128996745228
1626180094600.07,-12.1381422445944
1626180094603.39,-12.1781697485649
1626180094606.72,-12.1840837221245
1626180094610.05,-12.2033401970077
1626180094613.37,-12.2217312123455
1626180094616.7,-12.2292318617382
1626180094620.03,-12.2431513360919
1626180094623.35,-12.2654369193836
1626180094626.68,-12.2551956480975
1626180094630,-12.2497144043105
1626180094633.33,-12.2717836227159
1626180094636.66,-12.274019393208
1626180094639.98,-12.2986128686205
1626180094643.31,-12.2806545830553
1626180094646.64,-12.2753897041547
1626180094649.96,-12.2874340161603
1626180094653.29,-12.2954395169544
1626180094656.62,-12.3079165587326
1626180094659.94,-12.3095032345656
1626180094663.27,-12.2983243821054
1626180094666.6,-12.3012092472564
1626180094669.92,-12.2961607332421
1626180094673.25,-12.2918334355156
1626180094676.57,-12.3105850589973
1626180094679.9,-12.3116668834289
1626180094683.23,-12.320970573541
1626180094686.55,-12.3242881684647
1626180094689.88,-12.2970261927874
1626180094693.21,-12.2964492197572
1626180094696.53,-12.3072674640736
1626180094699.86,-12.3108735455124
1626180094703.19,-12.3246487766086
1626180094706.51,-12.3239275603208
1626180094709.84,-12.3004159093399
1626180094713.17,-12.3120274915728
1626180094716.49,-12.3173644921022
1626180094719.82,-12.3038056258924
1626180094723.14,-12.3148402350951
1626180094726.47,-12.316138424413
1626180094729.8,-12.3082050452477
1626180094733.12,-12.3144075053224
1626180094736.45,-12.3180135867612
1626180094739.78,-12.305536544983
1626180094743.1,-12.3049595719528
1626180094746.43,-12.3144075053224
1626180094749.76,-12.3107293022548
1626180094753.08,-12.3258748442977
1626180094756.41,-12.3296251689941
1626180094759.74,-12.3198166274806
1626180094763.06,-12.3107293022548
1626180094766.39,-12.3189511679353
1626180094769.71,-12.2699084603677
1626180094773.04,-12.2805824614266
1626180094776.37,-12.2903910029401
1626180094779.69,-12.3294088041078
1626180094783.02,-12.3191675328216
1626180094786.35,-12.3233505872906
1626180094789.67,-12.3346736830084
1626180094793,-12.3473670896729
1626180094796.33,-12.3547956174368
1626180094799.65,-12.3581853339893
1626180094802.98,-12.3584016988756
1626180094806.3,-12.3612865640267
1626180094809.63,-12.3612865640267
1626180094812.96,-12.3325100341451
1626180094816.28,-12.3555168337246
1626180094819.61,-12.3614308072842
1626180094822.94,-12.3656138617532
1626180094826.26,-12.3863127692119
1626180094829.59,-12.3785236333041
1626180094832.92,-12.3783072684177
1626180094836.24,-12.3855194312953
1626180094839.57,-12.3803987956522
1626180094842.9,-12.3876830801586
1626180094846.22,-12.405569244095
1626180094849.55,-12.3891255127341
1626180094852.87,-12.3852309447802
1626180094856.2,-12.3805430389098
1626180094859.53,-12.3961934323541
1626180094862.85,-12.4012419463685
1626180094866.18,-12.4072280415568
1626180094869.51,-12.4065068252691
1626180094872.83,-12.410401393223
1626180094876.16,-12.3999437570505
1626180094879.49,-12.4248257189781
1626180094882.81,-12.4323984899996
1626180094886.14,-12.4000158786793
1626180094889.47,-12.402684378944
1626180094892.79,-12.4043431764058
1626180094896.12,-12.4192723535624
1626180094899.44,-12.4200656914789
1626180094902.77,-12.4080935011022
1626180094906.1,-12.4274220976141
1626180094909.42,-12.4299463546212
1626180094912.75,-12.4283596787881
1626180094916.08,-12.4359324498096
1626180094919.4,-12.4282875571594
1626180094922.73,-12.4323263683708
1626180094926.06,-12.4334081928025
1626180094929.38,-12.4176856777293
1626180094932.71,-12.43355243606
1626180094936.04,-12.4447312885203
1626180094939.36,-12.4572804519272
1626180094942.69,-12.4559822626093
1626180094946.01,-12.4571362086697
1626180094949.34,-12.4388894365894
1626180094952.67,-12.4481210050727
1626180094955.99,-12.456703478897
1626180094959.32,-12.4753108591212
1626180094962.65,-12.4665841420393
1626180094965.97,-12.4533858839733
1626180094969.3,-12.4709114397659
1626180094972.63,-12.4685314260163
1626180094975.95,-12.466367777153
1626180094979.28,-12.4646368580624
1626180094982.6,-12.4713441695385
1626180094985.93,-12.4829557517714
1626180094989.26,-12.4640598850322
1626180094992.58,-12.4722096290838
1626180094995.91,-12.4701902234781
1626180094999.24,-12.4798545217341
1626180095002.56,-12.4893745767325
1626180095005.89,-12.4958655233223
1626180095009.22,-12.4800708866204
1626180095012.54,-12.4807199812794
1626180095015.87,-12.4695411288191
1626180095019.2,-12.4666562636681
1626180095022.52,-12.4547561949201
1626180095025.85,-12.4472555455274
1626180095029.17,-12.4429282478009
1626180095032.5,-12.4404761124225
1626180095035.83,-12.43708639587
1626180095039.15,-12.4173250695855
1626180095042.48,-12.3992946623915
1626180095045.81,-12.3682823620179
1626180095049.13,-12.3402991700529
1626180095052.46,-12.3360439939551
1626180095055.79,-12.3516943873995
1626180095059.11,-12.3640993075489
1626180095062.44,-12.4021795275425
1626180095065.77,-12.3987176893613
1626180095069.09,-12.4185511372746
1626180095072.42,-12.4199935698502
1626180095075.74,-12.4555495328366
1626180095079.07,-12.4659350473803
1626180095082.4,-12.5162759442658
1626180095085.72,-12.5478652176696
1626180095089.05,-12.5498846232754
1626180095092.38,-12.5596210431601
1626180095095.7,-12.5702950442189
1626180095099.03,-12.5672659358103
1626180095102.36,-12.5780120584979
1626180095105.68,-12.5847914916028
1626180095109.01,-12.5851520997467
1626180095112.34,-12.5629386380838
1626180095115.66,-12.5728193012261
1626180095118.99,-12.5718095984232
1626180095122.31,-12.5736847607714
1626180095125.64,-12.5847193699741
1626180095128.97,-12.5896236407308
1626180095132.29,-12.5910660733063
1626180095135.62,-12.6078704128111
1626180095138.95,-12.605634642319
1626180095142.27,-12.6156595487189
1626180095145.6,-12.6096734535305
1626180095148.93,-12.6230880764828
1626180095152.25,-12.6238092927705
1626180095155.58,-12.5946721547451
1626180095158.91,-12.604697061145
1626180095162.23,-12.6031825069407
1626180095165.56,-12.6471045788651
1626180095168.88,-12.667731364695
1626180095172.21,-12.5845030050877
1626180095318.57,-12.5884696946704
1626180095321.9,-12.5808248020202
1626180095325.23,-12.5782284233842
1626180095328.55,-12.5632992462277
1626180095331.88,-12.5380566761561
1626180095335.21,-12.5325754323692
1626180095338.53,-12.5485143123286
1626180095341.86,-12.5303396618771
1626180095345.18,-12.5319263377102
1626180095348.51,-12.5423118522539
1626180095351.84,-12.5216129447952
1626180095355.16,-12.5142565386601
1626180095358.49,-12.5153383630918
1626180095361.82,-12.5043758755178
1626180095365.14,-12.5038710241164
1626180095368.47,-12.4873551711267
1626180095371.8,-12.4792775487039
1626180095375.12,-12.4828836301426
1626180095378.45,-12.4520155730266
1626180095381.77,-12.4486979781029
1626180095385.1,-12.445452504808
1626180095388.43,-12.1585526655379
1626180095444.98,-12.1475180563352
1626180095448.3,-12.1625914767494
1626180095451.63,-12.1436956100101
1626180095454.96,-12.1544417326977
1626180095458.28,-12.1778091404211
1626180095461.61,-12.2228851584059
1626180095464.94,-12.2419973900315
1626180095468.26,-12.3009928823701
1626180095471.59,-12.3421743324011
1626180095474.91,-12.372104808343
1626180095478.24,-12.409103203905
1626180095481.57,-12.4421349098843
1626180095484.89,-12.4706229532508
1626180095488.22,-12.4962261314662
1626180095491.55,-12.53488332449
1626180095494.87,-12.5401482033906
1626180095498.2,-12.574766585203
1626180095501.53,-12.617534711067
1626180095504.85,-12.6023170473954
1626180095508.18,-12.6253238469748
1626180095511.51,-12.634916023602
1626180095514.83,-12.7160528559748
1626180095561.4,-12.7129516259374
1626180095564.73,-12.7119419231346
1626180095568.05,-12.7125910177935
1626180095571.38,-12.7122304096497
1626180095574.71,-12.7062443144613
1626180095578.03,-12.7221831944207
1626180095581.36,-12.7331456819946
1626180095584.69,-12.7260056407458
1626180095588.01,-12.7284577761242
1626180095591.34,-12.7524021568778
1626180095594.67,-12.7190819643834
1626180095597.99,-12.7253565460869
1626180095601.32,-12.7311983980177
1626180095604.64,-12.7624270632776
1626180095607.97,-12.7135285989676
1626180095611.3,-12.7074703821505
1626180095614.62,-12.7096340310137
1626180095617.95,-12.7056673414311
1626180095621.28,-12.7054509765447
1626180095624.6,-12.7299723303285
1626180095627.93,-12.7199474239287
1626180095631.26,-12.7187934778683
1626180095677.83,-12.730765668245
1626180095681.15,-12.7151152748007
1626180095684.48,-12.7070376523778
1626180095687.81,-12.7162692208611
1626180095691.13,-12.7183607480956
1626180095694.46,-12.7378335878651
1626180095697.78,-12.7498057782418
1626180095701.11,-12.7534118596806
1626180095704.44,-12.7477863726361
1626180095707.76,-12.7330014387371
1626180095711.09,-12.7264383705185
1626180095714.42,-12.7441802911973
1626180095717.74,-12.7476421293786
1626180095721.07,-12.7425214937355
1626180095724.4,-12.7568736978619
1626180095727.72,-12.7508154810447
1626180095731.05,-12.7557197518015
1626180095734.38,-12.779015037896
1626180095737.7,-12.7620664551337
1626180095741.03,-12.7549985355137
1626180095744.35,-12.7611288739596
1626180095747.68,-12.7738222806242
1626180095790.92,-12.7836308221377
1626180095794.25,-12.7814671732744
1626180095797.58,-12.8039691214525
1626180095800.9,-12.8005794049
1626180095804.23,-12.7923575392196
1626180095807.56,-12.7961799855447
1626180095810.88,-12.7894726740685
1626180095814.21,-12.7707931722156
1626180095817.54,-12.7862993224024
1626180095820.86,-12.7703604424429
1626180095824.19,-12.7890399442959
1626180095827.51,-12.7938720934239
1626180095830.84,-12.7930066338785
1626180095834.17,-12.8072145947474
1626180095837.49,-12.8094503652394
1626180095840.82,-12.798343634408
1626180095844.15,-12.7862993224024
1626180095847.47,-12.8000745534986
1626180095850.8,-12.7956751341433
1626180095854.13,-12.7944490664541
1626180095857.45,-12.8143546359962
1626180095860.78,-12.806060648687
1626180095864.11,-12.8009400130439
1626180095867.43,-12.8028151753921
1626180095870.76,-12.7914920796743
1626180095874.08,-12.8053394323992
1626180095877.41,-12.796396350431
1626180095880.74,-12.8029594186496
1626180095884.06,-12.8121188655041
1626180095887.39,-12.8117582573603
1626180095890.72,-12.8231534747068
1626180095894.04,-12.8172395011472
1626180095897.37,-12.8176001092911
1626180095900.7,-12.7961799855447
1626180095904.02,-12.7953866476281
1626180095907.35,-12.79704544509
1626180095910.68,-12.8057000405431
1626180095914,-12.8388038681512
1626180095917.33,-12.8350535434548
1626180095920.65,-12.7973339316051
1626180095923.98,-12.8162297983444
1626180095927.31,-12.8098109733833
1626180095930.63,-12.8181770823213
1626180095933.96,-12.8079358110351
1626180095937.29,-12.8083685408078
1626180095940.61,-12.7933672420224
1626180095943.94,-12.7995697020971
1626180095947.27,-12.7876696333491
1626180095950.59,-12.7821162679334
1626180095953.92,-12.7816835381607
1626180095957.24,-12.7833423356226
1626180095960.57,-12.7455506021441
1626180095963.9,-12.7165577073762
1626180095967.22,-12.7181443832093
1626180095970.55,-12.6760253520042
1626180095973.88,-12.639099078071
1626180095977.2,-12.6636925534836
1626180095980.53,-12.6821556904502
1626180095983.86,-12.6973733541218
1626180095987.18,-12.7154037613158
1626180095990.51,-12.714682545028
1626180095993.84,-12.7042970304843
1626180095997.16,-12.7115091933619
1626180096000.49,-12.7450457507426
1626180096003.81,-12.7921411743332
1626180096007.14,-12.8194031500105
1626180096010.47,-12.8653446275407
1626180096013.79,-12.8373614355757
1626180096017.12,-12.852362734361
1626180096020.45,-12.853660923679
1626180096023.77,-12.8351977867124
1626180096027.1,-12.8273365291758
1626180096030.43,-12.8574833700041
1626180096033.75,-12.8612336947004
1626180096037.08,-12.8615943028443
1626180096040.41,-12.8758022637132
1626180096043.73,-12.8853944403403
1626180096047.06,-12.8691670738658
1626180096050.38,-12.8878465757187
1626180096053.71,-12.9034969691631
1626180096057.04,-12.902559387989
1626180096060.36,-12.8773168179174
1626180096063.69,-12.9036412124206
1626180096067.02,-12.8902265894683
1626180096070.34,-12.8882071838626
1626180096073.67,-12.8965011711718
1626180096077,-12.9027036312465
1626180096080.32,-12.9094830643514
1626180096083.65,-12.9207340384405
1626180096086.98,-12.8729173985621
1626180096090.3,-12.8857550484842
1626180096093.63,-12.9319128909007
1626180096096.95,-13.0483893213736
1626180096100.28,-13.1539753859014
1626180096103.61,-13.2032344583552
1626180096106.93,-13.2343188803576
1626180096110.26,-13.0892822848895
1626180096113.59,-12.9981926677457
1626180096116.91,-12.6729962435956
1626180096120.24,-12.1291270409974
1626180096123.57,-11.7725577083299
1626180096126.89,-11.068073638448
1626180096130.22,-10.8478141841667
1626180096133.54,-10.8389432238273
1626180096136.87,-11.1157460350688
1626180096140.2,-11.5478988346933
1626180096143.52,-11.7846741419642
1626180096146.85,-12.2984686253629
1626180096150.18,-12.7389875339255
1626180096153.5,-12.8279856238348
1626180096156.83,-12.8746483176527
1626180096160.16,-12.815364338799
1626180096163.48,-12.8121188655041
1626180096166.81,-12.7860108358873
1626180096170.14,-12.8042576079676
1626180096173.46,-12.8229371098205
1626180096176.79,-12.8066376217172
1626180096180.11,-12.8020939591043
1626180096183.44,-12.8074309596337
1626180096186.77,-12.8209898258436
1626180096190.09,-12.8101715815272
1626180096193.42,-12.820845582586
1626180096196.75,-12.857194883489
1626180096200.07,-12.8388759897799
1626180096203.4,-12.8312310971297
1626180096206.73,-12.8491893826949
1626180096210.05,-12.8652003842831
1626180096213.38,-12.8569063969739
1626180096216.71,-12.8373614355757
1626180096220.03,-12.8383711383785
1626180096223.36,-12.8337553541369
1626180096226.68,-12.8220716502752
1626180096230.01,-12.848828774551
1626180096233.34,-12.8268316777744
1626180096236.66,-12.8186819337227
1626180096239.99,-12.8248122721687
1626180096243.32,-12.8217110421313
1626180096246.64,-12.8422657063324
1626180096249.97,-12.8003630400137
1626180096253.3,-12.7981272695216
1626180096256.62,-12.7936557285375
1626180096259.95,-12.7798083758126
1626180096263.28,-12.7674755772919
1626180096266.6,-12.7591094683539
1626180096269.93,-12.7617779686186
1626180096273.25,-12.7628597930503
1626180096276.58,-12.7735337941091
1626180096279.91,-12.7700719559278
1626180096283.23,-12.7534118596806
1626180096286.56,-12.7293953572983
1626180096289.89,-12.7084079633245
1626180096293.21,-12.7149710315431
1626180096296.54,-12.7133122340813
1626180096299.87,-12.7173510452927
1626180096303.19,-12.7025661113937
1626180096306.52,-12.6940557591982
1626180096309.84,-12.6803526497308
1626180096313.17,-12.6843193393134
1626180096316.5,-12.6197704815591
1626180096319.82,-12.6078704128111
1626180096323.15,-12.586666653951
1626180096326.48,-12.5554379886911
1626180096329.8,-12.5424560955114
1626180096333.13,-12.5427445820266
1626180096336.46,-12.506251037866
1626180096339.78,-12.4939903609741
1626180096343.11,-12.471199926281
1626180096346.44,-12.4558380193517
1626180096349.76,-12.4560543842381
1626180096353.09,-12.439971261021
1626180096356.41,-12.4519434513978
1626180096359.74,-12.4512222351101
1626180096363.07,-12.3858079178104
1626180096366.39,-12.3771533223573
1626180096369.72,-12.3606374693677
1626180096373.05,-12.3541465227779
1626180096376.37,-12.3990782975052
1626180096379.7,-12.4032613519742
1626180096383.03,-12.4176135561006
1626180096386.35,-12.4259075434098
1626180096389.68,-12.453169519087
1626180096393.01,-12.5162759442658
1626180096396.33,-12.5894072758445
1626180096399.66,-12.6225111034526
1626180096402.98,-12.6359978480337
1626180096406.31,-12.6877090558659
1626180096409.64,-12.7122304096497
1626180096412.96,-12.7330014387371
1626180096416.29,-12.7834865788801
1626180096419.62,-12.7979830262641
1626180096422.94,-12.8248122721687
1626180096426.27,-12.8271201642895
1626180096429.6,-12.8162297983444
1626180096432.92,-12.8331783811067
1626180096436.25,-12.8442129903094
1626180096439.58,-12.8590700458372
1626180096442.9,-12.9268643768864
1626180096446.23,-12.9185703895772
1626180096449.55,-12.9313359178705
1626180096452.88,-12.8965732928006
1626180096456.21,-12.9084733615486
1626180096459.53,-12.9078963885184
1626180096462.86,-12.882293210303
1626180096466.19,-12.8861877782569
1626180096469.51,-12.8886399136352
1626180096472.84,-12.9071030506018
1626180096476.17,-12.9236910252203
1626180096479.49,-12.9065981992004
1626180096482.82,-12.9049394017386
1626180096486.15,-12.9048672801098
1626180096489.47,-12.9140267269643
1626180096492.8,-12.9341486613928
1626180096496.12,-12.9425868919595
1626180096499.45,-12.9473469194587
1626180096502.78,-12.9051557666249
1626180096506.1,-12.9085454831774
1626180096509.43,-12.9199407005239
1626180096512.76,-12.9099879157529
1626180096516.08,-12.907391537117
1626180096519.41,-12.913810362078
1626180096522.74,-12.9464814599134
1626180096526.06,-12.9285231743483
1626180096529.39,-12.9347977560518
1626180096532.71,-12.9328504720748
1626180096536.04,-12.9337880532489
1626180096539.37,-12.9319128909007
1626180096542.69,-12.9332832018475
1626180096546.02,-12.9311195529842
1626180096549.35,-12.9268643768864
1626180096552.67,-12.9334995667338
1626180096556,-12.9199407005239
1626180096559.33,-12.9014054419286
1626180096562.65,-12.9227534440462
1626180096565.98,-12.90191029333
1626180096569.31,-12.8988811849214
1626180096572.63,-12.9033527259055
1626180096575.96,-12.895779954884
1626180096579.28,-12.8918132653014
1626180096582.61,-12.904795158481
1626180096585.94,-12.9076079020033
1626180096589.26,-12.911863078101
1626180096592.59,-12.9073194154882
1626180096595.92,-12.9120794429874
1626180096599.24,-12.8873417243173
1626180096602.57,-12.8856829268554
1626180096605.9,-12.8771725746599
1626180096609.22,-12.880345926326
1626180096612.55,-12.8936884276496
1626180096615.88,-12.890659319241
1626180096619.2,-12.8918853869302
1626180096622.53,-12.9008284688984
1626180096625.85,-12.9055884963976
1626180096629.18,-12.9189309977211
1626180096632.51,-12.922176471016
1626180096635.83,-12.9259989173411
1626180096639.16,-12.919291605865
1626180096642.49,-12.897078144202
1626180096645.81,-12.9040739421933
1626180096649.14,-12.9280904445756
1626180096652.47,-12.9381153509754
1626180096655.79,-12.9275855931742
1626180096659.12,-12.9298213636662
1626180096662.45,-12.9286674176058
1626180096665.77,-12.9216716196146
1626180096669.1,-12.9416493107855
1626180096672.42,-12.9189309977211
1626180096675.75,-12.9234025387052
1626180096679.08,-12.9313359178705
1626180096682.4,-12.9314080394993
1626180096685.73,-12.9260710389699
1626180096689.06,-12.9320571341583
1626180096692.38,-12.9210225249556
1626180096695.71,-12.9149643081384
1626180096699.04,-12.9164067407139
1626180096702.36,-12.937610499574
1626180096705.69,-12.9267922552576
1626180096709.01,-12.9156855244262
1626180096712.34,-12.9282346878332
1626180096715.67,-12.9200128221527
1626180096718.99,-12.9331389585899
1626180096722.32,-12.9462650950271
1626180096725.65,-12.9505202711249
1626180096728.97,-12.9465535815422
1626180096732.3,-12.9360238237409
1626180096735.63,-12.9280904445756
1626180096738.95,-12.9368171616575
1626180096742.28,-12.9185703895772
1626180096745.61,-12.9091224562076
1626180096748.93,-12.9301819718101
1626180096752.26,-12.9367450400287
1626180096755.58,-12.9289559041209
1626180096758.91,-12.9441735677926
1626180096762.24,-12.9408559728689
1626180096765.56,-12.9267201336289
1626180096768.89,-12.9378268644603
1626180096772.22,-12.9383317158618
1626180096775.54,-12.9301819718101
1626180096778.87,-12.9422262838157
1626180096782.2,-12.9371056481726
1626180096785.52,-12.9366729183999
1626180096788.85,-12.929893485295
1626180096792.18,-12.9309753097266
1626180096795.5,-12.9294607555223
1626180096798.83,-12.9539821093061
1626180096802.15,-12.9221043493872
1626180096805.48,-12.9356632155971
1626180096808.81,-12.9334995667338
1626180096812.13,-12.9527560416169
1626180096815.46,-12.9415771891567
1626180096818.79,-12.9453996354818
1626180096822.11,-12.9158297676837
1626180096825.44,-12.9336438099913
1626180096828.77,-12.9409280944977
1626180096832.09,-12.9286674176058
1626180096835.42,-12.9380432293467
1626180096838.75,-12.925710430826
1626180096842.07,-12.925061336167
1626180096845.4,-12.922825565675
1626180096848.72,-12.908329118291
1626180096852.05,-12.9107091320406
1626180096855.38,-12.8986648200351
1626180096858.7,-12.9076800236321
1626180096862.03,-12.9141709702219
1626180096865.36,-12.888062940605
1626180096868.68,-12.8856108052267
1626180096872.01,-12.8724125471607
1626180096875.34,-12.8333226243642
1626180096878.66,-12.804762459369
1626180096881.99,-12.7910593499016
1626180096885.31,-12.7652398067999
1626180096888.64,-12.7784380648658
1626180096891.97,-12.8020218374755
1626180096895.29,-12.7867320521751
1626180096898.62,-12.8186819337227
1626180096901.95,-12.8230813530781
1626180096905.27,-12.8355583948563
1626180096908.6,-12.8374335572044
1626180096911.93,-12.8567621537163
1626180096915.25,-12.9029199961329
1626180096918.58,-12.9314801611281
1626180096921.91,-12.9459044868832
1626180096925.23,-12.9237631468491
1626180096928.56,-12.9159018893125
1626180096931.88,-12.9212388898419
1626180096935.21,-12.9458323652544
1626180096938.54,-12.9383317158618
1626180096941.86,-12.9446062975653
1626180096945.19,-12.9567227311996
1626180096948.52,-12.9440293245351
1626180096951.84,-12.9474911627163
1626180096955.17,-12.9666755159706
1626180096958.5,-12.9761234493403
1626180096961.82,-12.974608895136
1626180096965.15,-12.9570112177147
1626180096968.48,-12.9517463388141
1626180096971.8,-12.9585978935478
1626180096975.13,-12.9809555984683
1626180096978.45,-12.9885283694897
1626180096981.78,-12.9907641399818
1626180096985.11,-12.9770610305144
1626180096988.43,-12.9474911627163
1626180096991.76,-12.9567227311996
1626180096995.09,-12.9593191098355
1626180096998.41,-12.9762676925978
1626180097001.74,-12.9932162753601
1626180097005.07,-13.0884168253442
1626180097008.39,-13.164721508589
1626180097011.72,-13.2057587153624
1626180097015.05,-13.2568208285357
1626180097018.37,-13.1938586466144
1626180097021.7,-13.112938179128
1626180097025.02,-12.8838077645073
1626180097028.35,-12.5376960680122
1626180097031.68,-12.2649320679822
1626180097035,-11.6252853423697
1626180097038.33,-11.2043113952054
1626180097041.66,-11.1735875813469
1626180097044.98,-11.1417819430568
1626180097048.31,-11.5511443079882
1626180097051.64,-11.7412569214412
1626180097054.96,-12.1368440552764
1626180097058.29,-12.6547494715154
1626180097061.61,-12.8231534747068
1626180097064.94,-12.9343650262791
1626180097068.27,-12.9315522827568
1626180097071.59,-12.9147479432521
1626180097074.92,-12.8750089257966
1626180097078.25,-12.8923181167028
1626180097081.57,-12.9073194154882
1626180097084.9,-12.9084733615486
1626180097088.23,-12.8958520765128
1626180097091.55,-12.8932556978769
1626180097094.88,-12.8963569279143
1626180097098.21,-12.9037133340494
1626180097101.53,-12.8959963197704
1626180097104.86,-12.9261431605987
1626180097108.18,-12.9009005905271
1626180097111.51,-12.8881350622338
1626180097114.84,-12.8959241981416
1626180097118.16,-12.8900823462108
1626180097121.49,-12.89837633352
1626180097124.82,-12.9133776323053
1626180097128.14,-12.8933278195057
1626180097131.47,-12.8669313033737
1626180097134.8,-12.8882071838626
1626180097138.12,-12.9034248475343
1626180097141.45,-12.8785428856066
1626180097144.78,-12.871979817388
1626180097148.1,-12.8685179792068
1626180097151.43,-12.8716192092442
1626180097154.75,-12.85301182902
1626180097158.08,-12.8595748972386
1626180097161.41,-12.8660658438284
1626180097164.73,-12.8444293551957
1626180097168.06,-12.84240994959
1626180097171.39,-12.8470978554604
1626180097174.71,-12.8194752716393
1626180097178.04,-12.8072145947474
1626180097181.37,-12.8301492726981
1626180097184.69,-12.8106764329286
1626180097188.02,-12.7886072145232
1626180097191.35,-12.7903381336138
1626180097194.67,-12.7782216999795
1626180097198,-12.7795198892975
1626180097201.32,-12.7599028062705
1626180097204.65,-12.7492288052116
1626180097207.98,-12.732063857563
1626180097211.3,-12.7292511140407
1626180097214.63,-12.7080473551807
1626180097217.96,-12.7173510452927
1626180097221.28,-12.6776841494661
1626180097224.61,-12.6702556217022
1626180097227.94,-12.659365255757
1626180097231.26,-12.6371517940941
1626180097234.59,-12.6081588993262
1626180097237.92,-12.5976291415249
1626180097241.24,-12.5834211806561
1626180097244.57,-12.5514712991084
1626180097247.89,-12.5172135254399
1626180097251.22,-12.5136795656299
1626180097254.55,-12.5082704434717
1626180097257.87,-12.478267845901
1626180097261.2,-12.4686756692738
1626180097264.53,-12.4403318691649
1626180097267.85,-12.4289366518184
1626180097271.18,-12.4102571499654
1626180097274.51,-12.3951116079225
1626180097277.83,-12.3808315254249
1626180097281.16,-12.364387794064
1626180097284.48,-12.3815527417127
1626180097287.81,-12.3826345661443
1626180097291.14,-12.4059298522389
1626180097294.46,-12.4270614894702
1626180097297.79,-12.4546119516625
1626180097301.12,-12.5052413350631
1626180097304.44,-12.5585392187285
1626180097307.77,-12.556447691494
1626180097311.1,-12.5981339929264
1626180097314.42,-12.6471767004939
1626180097317.75,-12.6683083377252
1626180097321.08,-12.6705441082173
1626180097324.4,-12.7345881145702
1626180097327.73,-12.752330035249
1626180097331.05,-12.7495894133555
1626180097334.38,-12.7638694958531
1626180097337.71,-12.7788707946385
1626180097341.03,-12.806060648687
1626180097344.36,-12.828562596865
1626180097347.69,-12.8321686783038
1626180097351.01,-12.8411838819008
1626180097354.34,-12.8617385461019
1626180097357.67,-12.8680852494341
1626180097360.99,-12.8784707639779
1626180097364.32,-12.8677246412903
1626180097367.65,-12.8644070463666
1626180097370.97,-12.8820768454166
1626180097374.3,-12.8837356428785
1626180097377.62,-12.8990975498077
1626180097380.95,-12.8890005217791
1626180097384.28,-12.8828701833332
1626180097387.6,-12.8988090632926
1626180097390.93,-12.8996745228379
1626180097394.26,-12.9199407005239
1626180097397.58,-12.9086176048061
1626180097400.91,-12.8996024012092
1626180097404.24,-12.8954193467402
1626180097407.56,-12.8907314408697
1626180097410.89,-12.9064539559429
1626180097414.22,-12.8910199273848
1626180097417.54,-12.9087618480637
1626180097420.87,-12.8709701145852
1626180097424.19,-12.8672919115176
1626180097427.52,-12.8727731553046
1626180097430.85,-12.9017660500724
1626180097434.17,-12.9095551859802
1626180097437.5,-12.8721961822744
1626180097440.83,-12.8575554916329
1626180097444.15,-12.8659216005709
1626180097447.48,-12.8667870601162
1626180097450.81,-12.8535888020502
1626180097454.13,-12.8545263832243
1626180097457.46,-12.880995020985
1626180097460.78,-12.8853223187116
1626180097464.11,-12.8698161685248
1626180097467.44,-12.8743598311376
1626180097470.76,-12.8842404942799
1626180097474.09,-12.8890005217791
1626180097477.42,-12.8572670051178
1626180097480.74,-12.8576276132617
1626180097484.07,-12.8558245725423
1626180097487.4,-12.8540215318229
1626180097490.72,-12.8628203705335
1626180097494.05,-12.868445857578
1626180097497.38,-12.8596470188674
1626180097500.7,-12.8631809786774
1626180097504.03,-12.8568342753451
1626180097507.35,-12.8550312346257
1626180097510.68,-12.8619549109882
1626180097514.01,-12.8409675170144
1626180097517.33,-12.8569785186027
1626180097520.66,-12.8712586011003
1626180097523.99,-12.8514251531869
1626180097527.31,-12.8575554916329
1626180097530.64,-12.8435638956504
1626180097533.97,-12.8557524509135
1626180097537.29,-12.8535888020502
1626180097540.62,-12.8685901008356
1626180097543.95,-12.8667870601162
1626180097547.27,-12.8763792367434
1626180097550.6,-12.8631809786774
1626180097553.92,-12.8698882901535
1626180097557.25,-12.8585651944357
1626180097560.58,-12.8580603430343
1626180097563.9,-12.8630367354198
1626180097567.23,-12.8621712758745
1626180097570.56,-12.8568342753451
1626180097573.88,-12.8632531003062
1626180097577.21,-12.8734222499636
1626180097580.54,-12.8714749659866
1626180097583.86,-12.8617385461019
1626180097587.19,-12.8646234112529
1626180097590.52,-12.8648397761392
1626180097593.84,-12.8749368041678
1626180097597.17,-12.8530839506488
1626180097600.49,-12.8802016830685
1626180097603.82,-12.8543821399667
1626180097607.15,-12.8707537496988
1626180097610.47,-12.8798410749246
1626180097613.8,-12.8848174673101
1626180097617.13,-12.8648397761392
1626180097620.45,-12.878110155834
1626180097623.78,-12.8608730865566
1626180097627.11,-12.8535888020502
1626180097630.43,-12.8582767079206
1626180097633.76,-12.8582767079206
1626180097637.08,-12.8676525196615
1626180097640.41,-12.8630367354198
1626180097643.74,-12.8622433975033
1626180097647.06,-12.8630367354198
1626180097650.39,-12.8720519390168
1626180097653.72,-12.8862598998856
1626180097657.04,-12.8758743853419
1626180097660.37,-12.8730616418197
1626180097663.7,-12.8719076957593
1626180097667.02,-12.8779659125764
1626180097670.35,-12.8711864794715
1626180097673.68,-12.8824374535605
1626180097677,-12.8727010336758
1626180097680.33,-12.8812113858713
1626180097683.65,-12.8830144265907
1626180097686.98,-12.8892890082942
1626180097690.31,-12.8764513583721
1626180097693.63,-12.8844568591662
1626180097696.96,-12.8903708327259
1626180097700.29,-12.8874859675748
1626180097703.61,-12.868445857578
1626180097706.94,-12.8800574398109
1626180097710.27,-12.8793362235232
1626180097713.59,-12.8628203705335
1626180097716.92,-12.8734943715923
1626180097720.25,-12.8581324646631
1626180097723.57,-12.8706095064413
1626180097726.9,-12.8716913308729
1626180097730.22,-12.878110155834
1626180097733.55,-12.8741434662513
1626180097736.88,-12.8307983673571
1626180097740.2,-12.8366402192879
1626180097743.53,-12.8028151753921
1626180097746.86,-12.7735337941091
1626180097750.18,-12.7576670357784
1626180097753.51,-12.7368238850622
1626180097756.84,-12.703431570939
1626180097760.16,-12.699897611129
1626180097763.49,-12.7209571267315
1626180097766.82,-12.7358141822593
1626180097770.14,-12.7516088189612
1626180097773.47,-12.7562967248317
1626180097776.79,-12.7605519009294
1626180097780.12,-12.7615616037323
1626180097783.45,-12.7911314715304
1626180097786.77,-12.8542378967092
1626180097790.1,-12.8696719252672
1626180097793.43,-12.8633973435637
1626180097796.75,-12.8812113858713
1626180097800.08,-12.880345926326
1626180097803.41,-12.892245995074
1626180097806.73,-12.8883514271201
1626180097810.06,-12.901261198671
1626180097813.39,-12.906742442458
1626180097816.71,-12.9005399823833
1626180097820.04,-12.9045066719659
1626180097823.36,-12.8961405630279
1626180097826.69,-12.9190752409786
1626180097830.02,-12.9301819718101
1626180097833.34,-12.9254940659397
1626180097836.67,-12.9361680669985
1626180097840,-12.936312310256
1626180097843.32,-12.9405674863538
1626180097846.65,-12.9285231743483
1626180097849.98,-12.9319128909007
1626180097853.3,-12.9357353372258
1626180097856.63,-12.9280183229468
1626180097859.95,-12.9185703895772
1626180097863.28,-12.938908688892
1626180097866.61,-12.9452553922242
1626180097869.93,-12.9394856619222
1626180097873.26,-12.9637906508196
1626180097876.59,-13.0367777391407
1626180097879.91,-13.0661312420525
1626180097883.24,-13.17820825317
1626180097886.57,-13.2685766540261
1626180097889.89,-13.2692978703139
1626180097893.22,-13.1515953721518
1626180097896.55,-13.0571160384555
1626180097899.87,-12.7966127153173
1626180097903.2,-12.2621914460887
1626180097906.52,-11.9165846009951
1626180097909.85,-11.1479844031315
1626180097913.18,-10.7884580836842
1626180097916.5,-10.765379162476
1626180097919.83,-10.9357304496444
1626180097923.16,-11.439283661757
1626180097926.48,-11.6907717812981
1626180097929.81,-12.1998062371977
1626180097933.14,-12.6391711996998
1626180097936.46,-12.8033921484223
1626180097939.79,-12.9035690907918
1626180097943.12,-12.8429148009914
1626180097946.44,-12.832745651334
1626180097949.77,-12.8103158247847
1626180097953.09,-12.8099552166409
1626180097956.42,-12.8207013393284
1626180097959.75,-12.8388038681512
1626180097963.07,-12.8784707639779
1626180097966.4,-12.873927101365
1626180097969.73,-12.8789034937505
1626180097973.05,-12.8814277507577
1626180097976.38,-12.8910920490136
1626180097979.71,-12.8795525884095
1626180097983.03,-12.939557783551
1626180097986.36,-12.9562900014269
1626180097989.69,-12.8969339009445
1626180097993.01,-12.8910920490136
1626180097996.34,-12.8749368041678
1626180097999.66,-12.9016939284437
1626180098002.99,-12.9033527259055
1626180098006.32,-12.9033527259055
1626180098009.64,-12.8892168866655
1626180098012.97,-12.8736386148499
1626180098016.3,-12.8765956016297
1626180098019.62,-12.8856108052267
1626180098022.95,-12.8949866169675
1626180098026.28,-12.8755858988268
1626180098029.6,-12.8635415868213
1626180098032.93,-12.8548148697394
1626180098036.25,-12.8492615043237
1626180098039.58,-12.8470978554604
1626180098042.91,-12.8428426793626
1626180098046.23,-12.8330341378491
1626180098049.56,-12.8380826518634
1626180098052.89,-12.8422657063324
1626180098056.21,-12.829860786183
1626180098059.54,-12.8335389892505
1626180098062.87,-12.801877594218
1626180098066.19,-12.7963242288022
1626180098069.52,-12.7785101864946
1626180098072.85,-12.7912757147879
1626180098076.17,-12.7724519696774
1626180098079.5,-12.7596864413841
1626180098082.82,-12.7502385080145
1626180098086.15,-12.7563688464604
1626180098089.48,-12.7244189649128
1626180098092.8,-12.6985273001823
1626180098096.13,-12.6836702446544
1626180098099.46,-12.6758089871179
1626180098102.78,-12.663548310226
1626180098106.11,-12.6484027681831
1626180098109.44,-12.6297232663302
1626180098112.76,-12.5898400056171
1626180098116.09,-12.5770744773238
1626180098119.42,-12.565751381606
1626180098122.74,-12.5231274989995
1626180098126.07,-12.5110110653652
1626180098129.39,-12.4939182393453
1626180098132.72,-12.4765369268104
1626180098136.05,-12.4670889934407
1626180098139.37,-12.442567639657
1626180098142.7,-12.4247535973494
1626180098146.03,-12.4206426645091
1626180098149.35,-12.3955443376952
1626180098152.68,-12.3969146486419
1626180098156.01,-12.3987898109901
1626180098159.33,-12.4124207988287
1626180098162.66,-12.4155220288661
1626180098165.99,-12.4214360024257
1626180098169.31,-12.4598047089344
1626180098172.64,-12.4861291034376
1626180098175.96,-12.5233438638859
1626180098179.29,-12.5759926528922
1626180098182.62,-12.587964843269
1626180098185.94,-12.6489797412133
1626180098189.27,-12.7023497465074
1626180098192.6,-12.6952818268873
1626180098195.92,-12.7562967248317
1626180098199.25,-12.7873090252053
1626180098202.58,-12.8078636894064
1626180098205.9,-12.8419050981885
1626180098209.23,-12.8422657063324
1626180098212.55,-12.8517857613308
1626180098215.88,-12.8644791679954
1626180098219.21,-12.8918132653014
1626180098222.53,-12.8940490357934
1626180098225.86,-12.9014775635573
1626180098229.19,-12.9177770516607
1626180098232.51,-12.9143152134794
1626180098235.84,-12.9062375910565
1626180098239.17,-12.9334995667338
1626180098242.49,-12.9474911627163
1626180098245.82,-12.9490057169206
1626180098249.15,-12.966891880857
1626180098252.47,-12.962059731729
1626180098255.8,-12.9466978247998
1626180098259.12,-12.9425147703308
1626180098262.45,-12.9474190410875
1626180098265.78,-12.9608336640398
1626180098269.1,-12.9563621230557
1626180098272.43,-12.9609057856686
1626180098275.76,-12.9402068782099
1626180098279.08,-12.969776746008
1626180098282.41,-12.9748252600223
1626180098285.74,-12.9769167872568
1626180098289.06,-12.9839847068768
1626180098292.39,-12.972661611159
1626180098295.72,-12.9892495857775
1626180098299.04,-12.9949471944508
1626180098302.37,-12.9848501664221
1626180098305.69,-12.9976878163442
1626180098309.02,-12.9951635593371
1626180098312.35,-12.9940096132767
1626180098315.67,-13.0005726814953
1626180098319,-13.0152854937655
1626180098322.33,-13.0014381410406
1626180098325.65,-12.9877350315732
1626180098328.98,-13.0121842637282
1626180098332.31,-12.991341113012
1626180098335.63,-12.9782149765748
1626180098338.96,-12.9725173679015
1626180098342.29,-12.9706422055533
1626180098345.61,-12.9963175053975
1626180098348.94,-12.9945865863069
1626180098352.26,-12.9754743546813
1626180098355.59,-12.9765561791129
1626180098358.92,-12.9764119358554
1626180098362.24,-12.9616991235851
1626180098365.57,-12.9576603123737
1626180098368.9,-12.9837683419905
1626180098372.22,-12.9719403948713
1626180098375.55,-12.9839125852481
1626180098378.88,-12.9572997042298
1626180098382.2,-12.9575160691161
1626180098385.53,-12.9804507470668
1626180098388.85,-12.9834077338466
1626180098392.18,-12.96141063707
1626180098395.51,-12.9518184604428
1626180098398.83,-12.9647282319937
1626180098402.16,-12.9728058544166
1626180098405.49,-12.969127651349
1626180098408.81,-12.967540975516
1626180098412.14,-12.970425840667
1626180098415.47,-12.9715797867274
1626180098418.79,-12.9798737740366
1626180098422.12,-12.9740319221058
1626180098425.45,-12.9961732621399
1626180098428.77,-12.9729500976741
1626180098432.1,-12.9722288813864
1626180098435.42,-12.9790804361201
1626180098438.75,-12.9790083144913
1626180098442.08,-12.9801622605517
1626180098445.4,-12.9983369110032
1626180098448.73,-12.986508963884
1626180098452.06,-12.9618433668427
1626180098455.38,-12.9771331521431
1626180098458.71,-12.9744646518784
1626180098462.04,-12.9569390960859
1626180098465.36,-13.0000678300938
1626180098468.69,-12.981676814756
1626180098472.02,-12.9984811542608
1626180098475.34,-12.9917738427846
1626180098478.67,-13.0063424117973
1626180098481.99,-12.9946587079357
1626180098485.32,-12.9891774641487
1626180098488.65,-12.9972550865716
1626180098491.97,-12.9769889088856
1626180098495.3,-12.9940817349054
1626180098498.63,-13.0002120733514
1626180098501.95,-12.9937211267616
1626180098505.28,-12.997110843314
1626180098508.61,-12.9877350315732
1626180098511.93,-12.9870859369142
1626180098515.26,-13.0004284382377
1626180098518.59,-13.0015823842981
1626180098521.91,-13.0048999792218
1626180098525.24,-12.9946587079357
1626180098528.56,-12.9963175053975
1626180098531.89,-12.9879513964595
1626180098535.22,-13.0165836830835
1626180098538.54,-13.0261037380819
1626180098541.87,-13.0043951278204
1626180098545.2,-13.029277089748
1626180098548.52,-13.0121121420994
1626180098551.85,-13.0132660881598
1626180098555.18,-13.0217043187266
1626180098558.5,-13.0249497920215
1626180098561.83,-13.0220649268705
1626180098565.16,-13.017377021
1626180098568.48,-13.0144200342202
1626180098571.81,-13.0121842637282
1626180098575.13,-13.0100927364937
1626180098578.46,-13.0029526952449
1626180098581.79,-13.0136988179325
1626180098585.11,-13.0331716577019
1626180098588.44,-13.0074963578577
1626180098591.77,-12.99970722195
1626180098595.09,-12.9942980997918
1626180098598.42,-13.0027363303585
1626180098601.75,-12.9779264900597
1626180098605.07,-12.9895380722926
1626180098608.4,-12.9805228686956
1626180098611.72,-12.9733828274468
1626180098615.05,-12.9613385154412
1626180098618.38,-12.9417214324142
1626180098621.7,-12.9074636587457
1626180098625.03,-12.8772446962887
1626180098628.36,-12.8468814905741
1626180098631.68,-12.8530839506488
1626180098635.01,-12.8586373160645
1626180098638.34,-12.8786871288642
1626180098641.66,-12.9293165122648
1626180098644.99,-12.890010224582
1626180098648.32,-12.8993139146941
1626180098651.64,-12.8928229681042
1626180098654.97,-12.9469863113149
1626180098658.29,-12.9592469882067
1626180098661.62,-13.0025199654722
1626180098664.95,-13.0129776016447
1626180098668.27,-13.0443505101622
1626180098671.6,-13.0400953340644
1626180098674.93,-13.036994104027
1626180098678.25,-13.0442062669046
1626180098681.58,-13.047307496942
1626180098684.91,-13.0539426867894
1626180098688.23,-13.0593518089475
1626180098691.56,-13.0646166878482
1626180098694.89,-13.0700258100064
1626180098698.21,-13.0649051743633
1626180098701.54,-13.0577651331145
1626180098704.86,-13.0602893901216
1626180098708.19,-13.0874792441701
1626180098711.52,-13.0764446349674
1626180098714.84,-13.0846665006478
1626180098718.17,-13.1066635974245
1626180098721.5,-13.0812046624666
1626180098724.82,-13.0896428930334
1626180098728.15,-13.0708191479229
1626180098731.48,-13.102624786213
1626180098734.8,-13.1044999485612
1626180098738.13,-13.0982974884865
1626180098741.46,-13.089426528147
1626180098744.78,-13.0938259475024
1626180098748.11,-13.1461141283648
1626180098751.43,-13.2526377740667
1626180098754.76,-13.329086700569
1626180098758.09,-13.4030113700642
1626180098761.41,-13.4120265736612
1626180098764.74,-13.3563486762462
1626180098768.07,-13.2080666074832
1626180098771.39,-12.9113582266996
1626180098774.72,-12.6795593118142
1626180098778.05,-11.9882734999983
1626180098781.37,-11.2079174766442
1626180098784.7,-10.9796525215688
1626180098788.02,-10.9459717209305
1626180098791.35,-11.206042314296
1626180098794.68,-11.4550061768301
1626180098798,-11.9542320912161
1626180098801.33,-12.4381682203017
1626180098804.66,-12.6283529553834
1626180098807.98,-13.0040345196765
1626180098811.31,-13.0682948909157
1626180098814.64,-13.0287001167178
1626180098817.96,-12.9589585016916
1626180098821.29,-12.9520348253292
1626180098824.62,-12.9676130971447
1626180098827.94,-12.9884562478609
1626180098831.27,-12.9933605186177
1626180098834.59,-13.0067030199412
1626180098837.92,-13.0146363991066
1626180098841.25,-13.0279067788013
1626180098844.57,-13.0426917127003
1626180098847.9,-13.0397347259205
1626180098851.23,-13.0123285069857
1626180098854.55,-13.0400232124356
1626180098857.88,-13.0465862806542
1626180098861.21,-13.0385086582313
1626180098864.53,-13.0354795498228
1626180098867.86,-13.0108139527814
1626180098871.19,-13.0198291563784
1626180098874.51,-13.0291328464905
1626180098877.84,-13.0046836143355
1626180098881.16,-13.008073330888
1626180098884.49,-12.9901150453228
1626180098887.82,-13.0092272769484
1626180098891.14,-12.9924950590724
1626180098894.47,-13.0085060606606
1626180098897.8,-12.9888889776336
1626180098901.12,-12.9521790685867
1626180098904.45,-12.9634300426757
1626180098907.78,-12.9629251912743
1626180098911.1,-12.9769167872568
1626180098914.43,-12.9911968697544
1626180098917.76,-12.9888168560048
1626180098921.08,-12.9686227999476
1626180098924.41,-12.9335716883626
1626180098927.73,-12.9496548115796
1626180098931.06,-12.9414329458991
1626180098934.39,-12.9394135402934
1626180098937.71,-12.9345813911654
1626180098941.04,-12.9167673488578
1626180098944.37,-12.9117188348435
1626180098947.69,-12.8814998723864
1626180098951.02,-12.90544425314
1626180098954.35,-12.887125359431
1626180098957.67,-12.8784707639779
1626180098961,-12.8628203705335
1626180098964.32,-12.8470978554604
1626180098967.65,-12.8422657063324
1626180098970.98,-12.8315917052736
1626180098974.3,-12.8031036619072
1626180098977.63,-12.7731731859652
1626180098980.96,-12.7640137391107
1626180098984.28,-12.7388432906679
1626180098987.61,-12.7043691521131
1626180098990.94,-12.675448378974
1626180098994.26,-12.6874205693508
1626180098997.59,-12.6619616343929
1626180099000.92,-12.6419118215933
1626180099004.24,-12.6185444138699
1626180099007.57,-12.6072213181521
1626180099010.89,-12.5905612219049
1626180099014.22,-12.5560149617213
1626180099017.55,-12.5394269871029
1626180099020.87,-12.5288972293016
1626180099024.2,-12.501418888738
1626180099027.53,-12.5114437951379
1626180099030.85,-12.5053134566919
1626180099034.18,-12.518800201273
1626180099037.51,-12.5531300965703
1626180099040.83,-12.5677707872118
1626180099044.16,-12.6086637507276
1626180099047.49,-12.6565525122348
1626180099050.81,-12.6942000024557
1626180099054.14,-12.7499500214994
1626180099057.46,-12.7746877401695
1626180099060.79,-12.8062048919445
1626180099064.12,-12.8390202330375
1626180099067.44,-12.8725567904182
1626180099070.77,-12.8981599686336
1626180099074.1,-12.9493663250645
1626180099077.42,-12.9601845693808
1626180099080.75,-12.9720125165001
1626180099084.08,-13.0400232124356
1626180099087.4,-13.0030969385024
1626180099090.73,-13.0015102626694
1626180099094.06,-13.0234352378172
1626180099097.38,-13.0328831711868
1626180099100.71,-13.039590482663
1626180099104.03,-13.0527166191002
1626180099107.36,-13.0773100945127
1626180099110.69,-13.0755791754221
1626180099114.01,-13.0969271775397
1626180099117.34,-13.0742809861041
1626180099120.67,-13.0719730939833
1626180099123.99,-13.0889216767456
1626180099127.32,-13.0701700532639
1626180099130.65,-13.0909410823513
1626180099133.97,-13.1016150834102
1626180099137.3,-13.0985859750016
1626180099140.62,-13.0947635286765
1626180099143.95,-13.1123612060977
1626180099147.28,-13.1037787322734
1626180099150.6,-13.1075290569698
1626180099153.93,-13.1215206529523
1626180099157.26,-13.1077454218561
1626180099160.58,-13.1082502732575
1626180099163.91,-13.1006775022361
1626180099167.24,-13.1130824223855
1626180099170.56,-13.1130824223855
1626180099173.89,-13.1019035699253
1626180099177.22,-13.1068799623108
1626180099180.54,-13.0977205154563
1626180099183.87,-13.1107024086359
1626180099187.19,-13.112938179128
1626180099190.52,-13.1240449099594
1626180099193.85,-13.1181309363998
1626180099197.17,-13.1320504107535
1626180099200.5,-13.0891380416319
1626180099203.83,-13.0934653393585
1626180099207.15,-13.0959895963656
1626180099210.48,-13.0915901770103
1626180099213.81,-13.0933210961009
1626180099217.13,-13.0912295688664
1626180099220.46,-13.1086830030302
1626180099223.79,-13.1044999485612
1626180099227.11,-13.1047884350763
1626180099230.44,-13.1140200035596
1626180099233.76,-13.0938259475024
1626180099237.09,-13.0885610686017
1626180099240.42,-13.0713961209531
1626180099243.74,-13.083007703186
1626180099247.07,-13.0713961209531
1626180099250.4,-13.0631742552727
1626180099253.72,-13.0752185672782
1626180099257.05,-13.0649772959921
1626180099260.38,-13.0773100945127
1626180099263.7,-13.0653379041359
1626180099267.03,-13.0866137846248
1626180099270.36,-13.0837289194738
1626180099273.68,-13.0676457962568
1626180099277.01,-13.0675015529992
1626180099280.33,-13.0870465143974
1626180099283.66,-13.0770216079976
1626180099286.99,-13.0741367428466
1626180099290.31,-13.0710355128092
1626180099293.64,-13.0820701220119
1626180099296.97,-13.081709513868
1626180099300.29,-13.0749300807631
1626180099303.62,-13.0811325408378
1626180099306.95,-13.0722615804984
1626180099310.27,-13.0815652706105
1626180099313.6,-13.0763725133386
1626180099316.93,-13.0738482563315
1626180099320.25,-13.0900035011773
1626180099323.58,-13.1004611373497
1626180099326.9,-13.1155345577639
1626180099330.23,-13.0854598385644
1626180099333.56,-13.0923835149269
1626180099336.88,-13.0781034324292
1626180099340.21,-13.0880562172003
1626180099343.54,-13.1049326783338
1626180099346.86,-13.0979368803426
1626180099350.19,-13.0923835149269
1626180099353.52,-13.0931047312146
1626180099356.84,-13.0896428930334
1626180099360.17,-13.0809882975803
1626180099363.49,-13.0908689607226
1626180099366.82,-13.0903641093211
1626180099370.15,-13.1121448412114
1626180099373.47,-13.1215206529523
1626180099376.8,-13.1097648274618
1626180099380.13,-13.10457207019
1626180099383.45,-13.0760840268235
1626180099386.78,-13.0879840955715
1626180099390.11,-13.0851713520493
1626180099393.43,-13.0863974197385
1626180099396.76,-13.0916622986391
1626180099400.09,-13.1090436111741
1626180099403.41,-13.0883447037154
1626180099406.74,-13.1042835836749
1626180099410.06,-13.1013987185238
1626180099413.39,-13.1157509226502
1626180099416.72,-13.105509651364
1626180099420.04,-13.1092599760604
1626180099423.37,-13.1015429617814
1626180099426.7,-13.1127939358704
1626180099430.02,-13.0961338396232
1626180099433.35,-13.1039950971598
1626180099436.68,-13.1021920564404
1626180099440,-13.1015429617814
1626180099443.33,-13.1010381103799
1626180099446.66,-13.1128660574992
1626180099449.98,-13.0934653393585
1626180099453.31,-13.0832961897011
1626180099456.63,-13.0996677994332
1626180099459.96,-13.0840174059889
1626180099463.29,-13.0832961897011
1626180099466.61,-13.1029132727281
1626180099469.94,-13.0695209586049
1626180099473.27,-13.0648330527345
1626180099476.59,-13.0127612367584
1626180099479.92,-13.0093715202059
1626180099483.25,-12.976844665628
1626180099486.57,-12.9428753784746
1626180099489.9,-12.9610500289261
1626180099493.23,-12.9616991235851
1626180099496.55,-12.9886726127473
1626180099499.88,-12.9948029511932
1626180099503.2,-13.0010775328967
1626180099506.53,-13.0217043187266
1626180099509.86,-13.0582699845159
1626180099513.18,-13.0567554303116
1626180099516.51,-13.0858204467083
1626180099519.84,-13.1314013160946
1626180099523.16,-13.1548408454467
1626180099526.49,-13.1260643155651
1626180099529.82,-13.1377480194268
1626180099533.14,-13.1489268718871
1626180099536.47,-13.1363777084801
1626180099539.79,-13.1528935614697
1626180099543.12,-13.1545523589316
1626180099546.45,-13.1790737127154
1626180099549.77,-13.1754676312766
1626180099553.1,-13.1709239686637
1626180099556.43,-13.1821028211239
1626180099559.75,-13.2053259855897
1626180099563.08,-13.2123939052098
1626180099566.41,-13.1895313488878
1626180099569.73,-13.1967435117654
1626180099573.06,-13.1936422817281
1626180099576.39,-13.2077781209681
1626180099579.71,-13.217153932709
1626180099583.04,-13.2209763790341
1626180099586.36,-13.2023689988099
1626180099589.69,-13.2083550939983
1626180099593.02,-13.1976810929395
1626180099596.34,-13.2072732695667
1626180099599.67,-13.2260248930484
1626180099603,-13.2519165577789
1626180099606.32,-13.330384889887
1626180099609.65,-13.4183732769934
1626180099612.98,-13.467415984561
1626180099616.3,-13.5207138682263
1626180099619.63,-13.466766889902
1626180099622.96,-13.3893082605968
1626180099626.28,-13.1737367121859
1626180099629.61,-12.7580997655511
1626180099632.93,-12.4959376449511
1626180099636.26,-11.7920305480993
1626180099639.59,-11.320571460792
1626180099642.91,-11.306724108067
1626180099646.24,-11.302252567083
1626180099649.57,-11.7183943651193
1626180099652.89,-11.9478132662551
1626180099656.22,-12.3452034408097
1626180099659.55,-12.8568342753451
1626180099662.87,-13.053077227244
1626180099666.2,-13.2030180934689
1626180099669.53,-13.1909737814634
1626180099672.85,-13.1526050749546
1626180099676.18,-13.128372207686
1626180099679.5,-13.1326273837837
1626180099682.83,-13.1662360627933
1626180099686.16,-13.1474844393116
1626180099689.48,-13.1636396841573
1626180099692.81,-13.1787131045715
1626180099696.14,-13.1970319982805
1626180099699.46,-13.1831846455556
1626180099702.79,-13.1779918882837
1626180099706.12,-13.2044605260444
1626180099709.44,-13.2013592960071
1626180099712.77,-13.2012871743783
1626180099716.09,-13.1971041199093
1626180099719.42,-13.2048932558171
1626180099722.75,-13.201719904151
1626180099726.07,-13.1909737814634
1626180099729.4,-13.202657485325
1626180099732.73,-13.1940028898719
1626180099736.05,-13.202657485325
1626180099739.38,-13.2084993372559
1626180099742.71,-13.2080666074832
1626180099746.03,-13.187223456767
1626180099749.36,-13.1902525651756
1626180099752.69,-13.1733761040421
1626180099756.01,-13.1773427936247
1626180099759.34,-13.1826797941541
1626180099762.66,-13.1681833467702
1626180099765.99,-13.1825355508966
1626180099769.32,-13.1760446043068
1626180099772.64,-13.1720779147241
1626180099775.97,-13.1567160077949
1626180099779.3,-13.1737367121859
1626180099782.62,-13.1649378734753
1626180099785.95,-13.1678948602551
1626180099789.28,-13.1635675625286
1626180099792.6,-13.1404886413203
1626180099795.93,-13.12224186924
1626180099799.26,-13.1324831405262
1626180099802.58,-13.1122169628402
1626180099805.91,-13.1121448412114
1626180099809.23,-13.1016872050389
1626180099812.56,-13.0973599073124
1626180099815.89,-13.0941144340175
1626180099819.21,-13.1015429617814
1626180099822.54,-13.0492547809189
1626180099825.87,-13.0281952653164
1626180099829.19,-13.0023757222147
1626180099832.52,-13.0080012092592
1626180099835.85,-12.9908362616105
1626180099839.17,-12.9697046243792
1626180099842.5,-12.9603288126384
1626180099845.83,-12.9479238924889
1626180099849.15,-12.9396299051797
1626180099852.48,-12.9039296989357
1626180099855.8,-12.8812113858713
1626180099859.13,-12.8758022637132
1626180099862.46,-12.8445735984532
1626180099865.78,-12.8313753403873
1626180099869.11,-12.8377941653483
1626180099872.44,-12.8119025006178
1626180099875.76,-12.8255334884564
1626180099879.09,-12.8253171235701
1626180099882.42,-12.7967569585749
1626180099885.74,-12.8321686783038
1626180099889.07,-12.834043840652
1626180099892.4,-12.8326735297052
1626180099895.72,-12.8576276132617
1626180099899.05,-12.8944096439373
1626180099902.37,-12.9307589448403
1626180099905.7,-13.0002120733514
1626180099909.03,-13.0299983060358
1626180099912.35,-13.0700258100064
1626180099915.68,-13.099739921062
1626180099919.01,-13.1296703970039
1626180099922.33,-13.189170740744
1626180099925.66,-13.2105908644904
1626180099928.99,-13.2232121495261
1626180099932.31,-13.2514117063775
1626180099935.64,-13.2783851955396
1626180099938.96,-13.2993004678846
1626180099942.29,-13.324254551441
1626180099945.62,-13.3344958227272
1626180099948.94,-13.3305291331445
1626180099952.27,-13.3644262986691
1626180099955.6,-13.3646426635555
1626180099958.92,-13.3813748814314
1626180099962.25,-13.3846924763551
1626180099965.58,-13.3831779221508
1626180099968.9,-13.3941404097248
1626180099972.23,-13.4014246942311
1626180099975.56,-13.4212581421445
1626180099978.88,-13.44037037377
1626180099982.21,-13.4426782658909
1626180099985.53,-13.4501067936548
1626180099988.86,-13.4440485768376
1626180099992.19,-13.4443370633527
1626180099995.51,-13.457102591646
1626180099998.84,-13.4636656598646
1626180100002.17,-13.4598432135395
1626180100005.49,-13.4713826741436
1626180100008.82,-13.4573189565324
1626180100012.15,-13.4634492949783
1626180100015.47,-13.4778736207335
1626180100018.8,-13.4868888243304
1626180100022.13,-13.4868888243304
1626180100025.45,-13.4935240141778
1626180100028.78,-13.4877542838757
1626180100032.1,-13.5073713669028
1626180100035.43,-13.5114101781142
1626180100038.76,-13.4926585546325
1626180100042.08,-13.5050634747819
1626180100045.41,-13.5070828803877
1626180100048.74,-13.4990773795935
1626180100052.06,-13.5055683261834
1626180100055.39,-13.5176126381889
1626180100058.72,-13.5106168401977
1626180100062.04,-13.5382394240188
1626180100065.37,-13.5310272611412
1626180100068.7,-13.4943894737231
1626180100072.02,-13.5104725969401
1626180100075.35,-13.5016737582295
1626180100078.67,-13.5257623822406
1626180100082,-13.5206417465975
1626180100085.33,-13.5246084361802
1626180100088.65,-13.5093907725085
1626180100091.98,-13.5113380564854
1626180100095.31,-13.5370133563296
1626180100098.63,-13.5427109650029
1626180100101.96,-13.5175405165601
1626180100105.29,-13.515665354212
1626180100108.61,-13.5505001009107
1626180100111.94,-13.5556207365538
1626180100115.26,-13.5548273986372
1626180100118.59,-13.5642032103781
1626180100121.92,-13.5624001696587
1626180100125.24,-13.5606692505681
1626180100128.57,-13.5595153045077
1626180100131.9,-13.5818730094281
1626180100135.22,-13.5746608465506
1626180100138.55,-13.6012737275688
1626180100141.88,-13.5921142807143
1626180100145.2,-13.5903833616237
1626180100148.53,-13.6114428772262
1626180100151.86,-13.604447079235
1626180100155.18,-13.6070434578709
1626180100158.51,-13.6172126075283
1626180100161.83,-13.6297617709353
1626180100165.16,-13.6125968232866
1626180100168.49,-13.6226938513152
1626180100171.81,-13.6272375139281
1626180100175.14,-13.6318532981698
1626180100178.47,-13.6335842172604
1626180100181.79,-13.6647407608915
1626180100185.12,-13.643681245289
1626180100188.45,-13.63596423101
1626180100191.77,-13.6376230284718
1626180100195.1,-13.6375509068431
1626180100198.43,-13.6482249079019
1626180100201.75,-13.64303215063
1626180100205.08,-13.6532013002874
1626180100208.4,-13.6581776926729
1626180100211.73,-13.662000138998
1626180100215.06,-13.6816893436538
1626180100218.38,-13.6772178026697
1626180100221.71,-13.6826990464567
1626180100225.04,-13.6879639253573
1626180100228.36,-13.6712317074814
1626180100231.69,-13.691281520281
1626180100235.02,-13.6976282236133
1626180100238.34,-13.7055616027786
1626180100241.67,-13.6947433584623
1626180100245,-13.6801747894495
1626180100248.32,-13.6830596546006
1626180100251.65,-13.685511789979
1626180100254.97,-13.7168846984964
1626180100258.3,-13.6969791289543
1626180100261.63,-13.7033979539154
1626180100264.95,-13.6987100480449
1626180100268.28,-13.6925075879702
1626180100271.61,-13.6857281548653
1626180100274.93,-13.647215205099
1626180100278.26,-13.621179297111
1626180100281.59,-13.6206744457095
1626180100284.91,-13.5852627259806
1626180100288.24,-13.5530243579178
1626180100291.56,-13.5453073436388
1626180100294.89,-13.5611741019695
1626180100298.22,-13.5788439010196
1626180100301.54,-13.5959367270394
1626180100304.87,-13.6250017434361
1626180100308.2,-13.6464218671825
1626180100311.52,-13.6601249766499
1626180100314.85,-13.7074367651268
1626180100318.18,-13.7448678904614
1626180100321.5,-13.7548206752325
1626180100324.83,-13.7935499898851
1626180100328.16,-13.8167731543509
1626180100331.48,-13.8191531681005
1626180100334.81,-13.8188646815854
1626180100338.13,-13.8226871279105
1626180100341.46,-13.8155470866617
1626180100344.79,-13.8355247778326
1626180100348.11,-13.829610804273
1626180100351.44,-13.8466315086641
1626180100354.77,-13.8511751712769
1626180100358.09,-13.8648061591156
1626180100361.42,-13.8782207820679
1626180100364.75,-13.8762734980909
1626180100368.07,-13.8839183907412
1626180100371.4,-13.8777159306664
1626180100374.73,-13.8963954325194
1626180100378.05,-13.9063482172904
1626180100381.38,-13.886875377521
1626180100384.7,-13.90872823104
1626180100388.03,-13.8937269322547
1626180100391.36,-13.9095936905853
1626180100394.68,-13.9013718249049
1626180100398.01,-13.9223592188787
1626180100401.34,-13.9196185969852
1626180100404.66,-13.9811383463309
1626180100407.99,-14.0899698841536
1626180100411.32,-14.1478114304318
1626180100414.64,-14.2571478196559
1626180100417.97,-14.221087005268
1626180100421.3,-14.1838722448197
1626180100424.62,-13.99945724004
1626180100427.95,-13.6512540163105
1626180100431.27,-13.4039489512383
1626180100434.6,-12.7313426412752
1626180100437.93,-12.0025535824959
1626180100441.25,-11.8187876723752
1626180100444.58,-11.8374671742281
1626180100447.91,-12.1557399220157
1626180100451.23,-12.4230226782587
1626180100454.56,-12.9136661188204
1626180100457.89,-13.4139738576381
1626180100461.21,-13.6454842860084
1626180100464.54,-13.9541648571688
1626180100467.86,-13.9564727492896
1626180100471.19,-13.9043288116847
1626180100474.52,-13.880095944416
1626180100477.84,-13.8639406995703
1626180100481.17,-13.8843511205138
1626180100484.5,-13.8689170919558
1626180100487.82,-13.8739656059701
1626180100491.15,-13.9101706636155
1626180100494.48,-13.9079348931235
1626180100497.8,-13.9335380713389
1626180100501.13,-13.9201234483866
1626180100504.46,-13.9334659497101
1626180100507.78,-13.9447890454279
1626180100511.11,-13.9445005589128
1626180100514.43,-13.9565448709184
1626180100517.76,-13.9639012770535
1626180100521.09,-13.9522175731918
1626180100524.41,-13.9458708698596
1626180100527.74,-13.9463035996322
1626180100531.07,-13.9596461009557
1626180100534.39,-13.9462314780034
1626180100537.72,-13.9426253965647
1626180100541.05,-13.9433466128524
1626180100544.37,-13.9430581263373
1626180100547.7,-13.948611491753
1626180100551.03,-13.9447890454279
1626180100554.35,-13.944428437284
1626180100557.68,-13.9464478428898
1626180100561,-13.9422647884208
1626180100564.33,-13.9311580575893
1626180100567.66,-13.9259653003174
1626180100570.98,-13.9250277191434
1626180100574.31,-13.939307801641
1626180100577.64,-13.9324562469073
1626180100580.96,-13.920628299788
1626180100584.29,-13.9155797857737
1626180100587.62,-13.9156519074025
1626180100590.94,-13.9109640015321
1626180100594.27,-13.9102427852443
1626180100597.6,-13.9094494473278
1626180100600.92,-13.889111148013
1626180100604.25,-13.8663207133199
1626180100607.57,-13.8734607545687
1626180100610.9,-13.8576661178668
1626180100614.23,-13.835380534575
1626180100617.55,-13.8310532368485
1626180100620.88,-13.827663520296
1626180100624.21,-13.8027815583684
1626180100627.53,-13.8065318830647
1626180100630.86,-13.7918911924232
1626180100634.19,-13.7739329068581
1626180100637.51,-13.7515752019376
1626180100640.84,-13.732462970312
1626180100644.17,-13.7020997645974
1626180100647.49,-13.6927239528565
1626180100650.82,-13.6777226540712
1626180100654.14,-13.6405800152516
1626180100657.47,-13.6369018121841
1626180100660.8,-13.621179297111
1626180100664.12,-13.6110101474536
1626180100667.45,-13.5911045779114
1626180100670.78,-13.5895900237072
1626180100674.1,-13.5828105906022
1626180100677.43,-13.5591546963638
1626180100680.76,-13.57646388727
1626180100684.08,-13.5502837360243
1626180100687.41,-13.567448683673
1626180100690.73,-13.6053125387803
1626180100694.06,-13.624064162262
1626180100697.39,-13.6446188264631
1626180100700.71,-13.6951039666061
1626180100704.04,-13.7476806339837
1626180100707.37,-13.7706153119344
1626180100710.69,-13.8169895192372
1626180100714.02,-13.8741819708564
1626180100717.35,-13.8844953637714
1626180100720.67,-13.9251719624009
1626180100724,-13.9489720998969
1626180100727.33,-13.9805613733007
1626180100730.65,-14.0210216070439
1626180100733.98,-14.027440432005
1626180100737.3,-14.0612654759008
1626180100740.63,-14.0497260152967
1626180100743.96,-14.0650879222259
1626180100747.28,-14.0978311416902
1626180100750.61,-14.0980475065765
1626180100753.94,-14.1090099941504
1626180100757.26,-14.1067021020296
1626180100760.59,-14.1155009407402
1626180100763.92,-14.1284107122911
1626180100767.24,-14.1362719698276
1626180100770.57,-14.1460805113412
1626180100773.9,-14.149037498121
1626180100777.22,-14.1447823220232
1626180100780.55,-14.1402386594103
1626180100783.87,-14.1532926742187
1626180100787.2,-14.1822855689866
1626180100790.53,-14.1787516091766
1626180100793.85,-14.1788958524341
1626180100797.18,-14.1475950655454
1626180100800.51,-14.1556726879683
1626180100803.83,-14.1689430676631
1626180100807.16,-14.173486730276
1626180100810.49,-14.1936807863332
1626180100813.81,-14.2005323410669
1626180100817.14,-14.1965656514842
1626180100820.47,-14.1900025832656
1626180100823.79,-14.1784631226615
1626180100827.12,-14.1724049058443
1626180100830.44,-14.1906516779246
1626180100833.77,-14.1861801369405
1626180100837.1,-14.210773612353
1626180100840.42,-14.1853146773952
1626180100843.75,-14.1846655827362
1626180100847.08,-14.1923825970152
1626180100850.4,-14.1742079465637
1626180100853.73,-14.1735588519047
1626180100857.06,-14.1936086647044
1626180100860.38,-14.1837280015621
1626180100863.71,-14.1759388656543
1626180100867.03,-14.1867571099707
1626180100870.36,-14.2099802744365
1626180100873.69,-14.1941135161058
1626180100877.01,-14.1910122860685
1626180100880.34,-14.1985129354612
1626180100883.67,-14.1929595700454
1626180100886.99,-14.1925268402728
1626180100890.32,-14.1962050433403
1626180100893.65,-14.2034893278467
1626180100896.97,-14.207888747202
1626180100900.3,-14.1965656514842
1626180100903.63,-14.2024796250438
1626180100906.95,-14.1974311110295
1626180100910.28,-14.2109899772394
1626180100913.6,-14.2117111935271
1626180100916.93,-14.1951232189087
1626180100920.26,-14.1941856377346
1626180100923.58,-14.2022632601575
1626180100926.91,-14.2042826657632
1626180100930.24,-14.2256306678809
1626180100933.56,-14.224620965078
1626180100936.89,-14.2165433426551
1626180100940.22,-14.2163990993976
1626180100943.54,-14.2385404394317
1626180100946.87,-14.239405898977
1626180100950.2,-14.2430841020446
1626180100953.52,-14.2339967768188
1626180100956.85,-14.2495029270056
1626180100960.17,-14.2551284140502
1626180100963.5,-14.2595999550343
1626180100966.83,-14.2549120491638
1626180100970.15,-14.2393337773483
1626180100973.48,-14.2593114685191
1626180100976.81,-14.2733751861304
1626180100980.13,-14.2418580343554
1626180100983.46,-14.2559938735955
1626180100986.79,-14.2614029957536
1626180100990.11,-14.2479162511726
1626180100993.44,-14.2720769968125
1626180100996.77,-14.2599605631781
1626180101000.09,-14.2556332654516
1626180101003.42,-14.2646484690486
1626180101006.74,-14.2634224013594
1626180101010.07,-14.2647927123061
1626180101013.4,-14.2610423876098
1626180101016.72,-14.2623405769277
1626180101020.05,-14.2637830095032
1626180101023.38,-14.2839770655605
1626180101026.7,-14.2704903209794
1626180101030.03,-14.2823182680986
1626180101033.36,-14.2752503484786
1626180101036.68,-14.2893861877187
1626180101040.01,-14.2800824976066
1626180101043.33,-14.2906843770366
1626180101046.66,-14.3045317297616
1626180101049.99,-14.2880879984007
1626180101053.31,-14.2981850264293
1626180101056.64,-14.2947953098768
1626180101059.97,-14.2987619994595
1626180101063.29,-14.2890977012036
1626180101066.62,-14.2941462152179
1626180101069.95,-14.2846261602195
1626180101073.27,-14.2984735129444
1626180101076.6,-14.2784237001447
1626180101079.93,-14.289602552605
1626180101083.25,-14.2861407144237
1626180101086.58,-14.2836164574166
1626180101089.9,-14.2776303622282
1626180101093.23,-14.2674612125708
1626180101096.56,-14.2476998862862
1626180101099.88,-14.2221688296996
1626180101103.21,-14.2289482628045
1626180101106.54,-14.1961329217116
1626180101109.86,-14.1816364743276
1626180101113.19,-14.1452871734246
1626180101116.52,-14.1211264277847
1626180101119.84,-14.1286991988062
1626180101123.17,-14.1456477815685
1626180101126.5,-14.1787516091766
1626180101129.82,-14.1909401644397
1626180101133.15,-14.2148845451933
1626180101136.47,-14.2011093140971
1626180101139.8,-14.2131536261026
1626180101143.13,-14.2632781581018
1626180101146.45,-14.3018632294969
1626180101149.78,-14.327538529341
1626180101153.11,-14.3173693796837
1626180101156.43,-14.3267451914245
1626180101159.76,-14.3306397593784
1626180101163.09,-14.3325149217266
1626180101166.41,-14.3334525029007
1626180101169.74,-14.3390058683164
1626180101173.07,-14.3491750179738
1626180101176.39,-14.3586229513434
1626180101179.72,-14.3634551004714
1626180101183.04,-14.3633108572138
1626180101186.37,-14.3774466964539
1626180101189.7,-14.3664120872512
1626180101193.02,-14.3703787768339
1626180101196.35,-14.3786006425143
1626180101199.68,-14.3755715341057
1626180101203,-14.3916546573227
1626180101206.33,-14.388337062399
1626180101209.66,-14.3739127366439
1626180101212.98,-14.3972080227385
1626180101216.31,-14.3780957911129
1626180101219.64,-14.3763648720223
1626180101222.96,-14.3843703728164
1626180101226.29,-14.381918237438
1626180101229.61,-14.3871831163386
1626180101232.94,-14.4406973648903
1626180101236.27,-14.5329409280945
1626180101239.59,-14.6020334484617
1626180101242.92,-14.6699720227685
1626180101246.25,-14.7150480407534
1626180101249.57,-14.6737944690936
1626180101252.9,-14.5200311565436
1626180101256.23,-14.3970637794809
1626180101259.55,-14.0096985113261
1626180101262.88,-13.3395443367415
1626180101266.2,-12.9300377285525
1626180101269.53,-12.2572150537032
1626180101272.86,-12.1846606951548
1626180101276.18,-12.2221639421182
1626180101279.51,-12.6358536047761
1626180101282.84,-13.1407050062066
1626180101286.16,-13.4243593721818
1626180101289.49,-13.8838462691124
1626180101292.82,-14.2544071977624
1626180101296.14,-14.3360488815366
1626180101299.47,-14.3084984193442
1626180101302.8,-14.2635666446169
1626180101306.12,-14.2419301559842
1626180101309.45,-14.2650811988212
1626180101312.77,-14.2762600512815
1626180101316.1,-14.2677496990859
1626180101319.43,-14.3006371618077
1626180101322.75,-14.3193166636606
1626180101326.08,-14.3178742310851
1626180101329.41,-14.316936649911
1626180101332.73,-14.3307118810072
1626180101336.06,-14.3506174505493
1626180101339.39,-14.3457853014213
1626180101342.71,-14.3446313553609
1626180101346.04,-14.3575411269118
1626180101349.37,-14.3454968149062
1626180101352.69,-14.3380682871423
1626180101356.02,-14.3315773405525
1626180101359.34,-14.3226342585843
1626180101362.67,-14.3296300565755
1626180101366,-14.3254470021065
1626180101369.32,-14.3165760417671
1626180101372.65,-14.3177299878275
1626180101375.98,-14.3227063802131
1626180101379.3,-14.3138354198736
1626180101382.63,-14.3031614188148
1626180101385.96,-14.3061905272234
1626180101389.28,-14.2982571480581
1626180101392.61,-14.3210475827512
1626180101395.94,-14.3165760417671
1626180101399.26,-14.2909007419229
1626180101402.59,-14.2868619307115
1626180101405.91,-14.284770403477
1626180101409.24,-14.2870782955978
1626180101412.57,-14.2671006044269
1626180101415.89,-14.2673169693133
1626180101419.22,-14.2641436176471
1626180101422.55,-14.279938254349
1626180101425.87,-14.2558496303379
1626180101429.2,-14.2425792506432
1626180101432.53,-14.2155336398522
1626180101435.85,-14.1992341517489
1626180101439.18,-14.219139721291
1626180101442.5,-14.1986571787187
1626180101445.83,-14.1856031639103
1626180101449.16,-14.1625963643308
1626180101452.48,-14.1426186731599
1626180101455.81,-14.147090214144
1626180101459.14,-14.1276894960033
1626180101462.46,-14.1146354811949
1626180101465.79,-14.1002832770685
1626180101469.12,-14.0466969068881
1626180101472.44,-14.0335707704509
1626180101475.77,-14.0272961887474
1626180101479.1,-14.0007554293579
1626180101482.42,-13.9913074959883
1626180101485.75,-13.9838068465956
1626180101489.07,-13.9401732611863
1626180101492.4,-13.9320956387634
1626180101495.73,-13.9382980988381
1626180101499.05,-13.9263980300901
1626180101502.38,-13.8997851490718
1626180101505.71,-13.8938711755122
1626180101509.03,-13.9102427852443
1626180101512.36,-13.8824759581656
1626180101515.69,-13.884928093544
1626180101519.01,-13.9067809470631
1626180101522.34,-13.9059154875178
1626180101525.67,-13.9524339380782
1626180101528.99,-13.9892159687538
1626180101532.32,-14.00652515966
1626180101535.64,-14.0751849502546
1626180101538.97,-14.1084330211202
1626180101542.3,-14.122640981989
1626180101545.62,-14.1706018651249
1626180101548.95,-14.2071675309143
1626180101552.28,-14.231688884698
1626180101555.6,-14.2803709841217
1626180101558.93,-14.3017911078681
1626180101562.26,-14.32111970438
1626180101565.58,-14.3337409894158
1626180101568.91,-14.3728309122122
1626180101572.24,-14.3850915891041
1626180101575.56,-14.3739848582727
1626180101578.89,-14.3873273595962
1626180101582.21,-14.3889140354292
1626180101585.54,-14.3984340904276
1626180101588.87,-14.4260566742488
1626180101592.19,-14.4219457414086
1626180101595.52,-14.4443034463291
1626180101598.85,-14.4395434188298
1626180101602.17,-14.4639205293561
1626180101605.5,-14.4484143791693
1626180101608.83,-14.4458901221621
1626180101612.15,-14.4562035150771
1626180101615.48,-14.4635599212122
1626180101618.8,-14.4795709228004
1626180101622.13,-14.4801478958306
1626180101625.46,-14.4749551385588
1626180101628.78,-14.4856291396176
1626180101632.11,-14.4889467345413
